0.0,-100000.0,-18294.8,-100000.0,-100000.0,99496.7,99485.6,99463.6,99519.0
1.0,-100000.0,-18468.6,-100000.0,-100000.0,99207.6,99196.6,99174.3,99229.3
2.0,-100000.0,-18410.3,-100000.0,-100000.0,99379.8,99368.7,99346.0,99400.1
3.0,-100000.0,-18171.6,-100000.0,-100000.0,99657.8,99646.6,99624.2,99678.8
4.0,-100000.0,-18090.5,-100000.0,-100000.0,99603.0,99591.8,99569.8,99625.2
5.0,-100000.0,-18264.4,-100000.0,-100000.0,99291.7,99280.7,99258.5,99313.8
6.0,-100000.0,-18281.4,-100000.0,-100000.0,99372.6,99361.6,99338.9,99393.1
7.0,-100000.0,-18045.7,-100000.0,-100000.0,99680.0,99668.9,99646.4,99700.9
8.0,-100000.0,-17930.9,-100000.0,-100000.0,99692.5,99681.4,99659.3,99714.6
9.0,-100000.0,-18084.6,-100000.0,-100000.0,99385.7,99374.6,99352.6,99408.1
10.0,-100000.0,-18168.9,-100000.0,-100000.0,99367.4,99356.3,99333.6,99388.0
11.0,-100000.0,-17969.5,-100000.0,-100000.0,99685.0,99673.8,99651.3,99705.7
12.0,-100000.0,-17818.3,-100000.0,-100000.0,99761.0,99749.9,99727.8,99783.0
13.0,-100000.0,-17942.2,-100000.0,-100000.0,99480.1,99469.1,99447.2,99502.7
14.0,-100000.0,-18075.6,-100000.0,-100000.0,99362.4,99351.3,99328.7,99383.3
15.0,-100000.0,-17916.4,-100000.0,-100000.0,99668.0,99656.9,99634.3,99688.7
16.0,-100000.0,-17742.2,-100000.0,-100000.0,99802.4,99791.3,99769.1,99824.1
17.0,-100000.0,-17826.3,-100000.0,-100000.0,99567.2,99556.1,99534.2,99589.8
18.0,-100000.0,-18018.7,-100000.0,-100000.0,99361.5,99350.4,99327.9,99382.7
19.0,-100000.0,-17915.5,-100000.0,-100000.0,99628.9,99617.8,99595.1,99649.4
20.0,-100000.0,-17734.3,-100000.0,-100000.0,99817.7,99806.5,99784.3,99839.2
21.0,-100000.0,-17775.4,-100000.0,-100000.0,99637.6,99626.5,99604.6,99660.2
22.0,-100000.0,-17987.8,-100000.0,-100000.0,99363.4,99352.3,99330.0,99385.0
23.0,-100000.0,-17943.9,-100000.0,-100000.0,99571.1,99560.0,99537.3,99591.5
24.0,-100000.0,-17753.8,-100000.0,-100000.0,99808.3,99797.1,99774.8,99829.5
25.0,-100000.0,-17752.2,-100000.0,-100000.0,99694.0,99682.9,99661.0,99716.5
26.0,-100000.0,-17979.1,-100000.0,-100000.0,99377.0,99366.1,99343.9,99399.1
27.0,-100000.0,-17997.7,-100000.0,-100000.0,99504.2,99493.2,99470.5,99524.7
28.0,-100000.0,-17803.3,-100000.0,-100000.0,99777.8,99766.7,99744.3,99798.9
29.0,-100000.0,-17753.7,-100000.0,-100000.0,99731.1,99720.1,99698.2,99753.4
30.0,-100000.0,-17969.9,-100000.0,-100000.0,99402.4,99391.4,99369.4,99424.7
31.0,-100000.0,-18054.8,-100000.0,-100000.0,99435.0,99423.9,99401.3,99455.5
32.0,-100000.0,-17867.6,-100000.0,-100000.0,99734.3,99723.1,99700.7,99755.2
33.0,-100000.0,-17772.7,-100000.0,-100000.0,99754.5,99743.4,99721.4,99776.6
34.0,-100000.0,-17955.5,-100000.0,-100000.0,99440.6,99429.5,99407.5,99463.0
35.0,-100000.0,-18088.5,-100000.0,-100000.0,99373.9,99362.8,99340.2,99394.6
36.0,-100000.0,-17926.5,-100000.0,-100000.0,99678.7,99667.6,99645.1,99699.4
37.0,-100000.0,-17798.7,-100000.0,-100000.0,99765.7,99754.6,99732.5,99787.5
38.0,-100000.0,-17939.2,-100000.0,-100000.0,99489.2,99478.2,99456.3,99511.9
39.0,-100000.0,-18119.4,-100000.0,-100000.0,99331.4,99320.4,99297.8,99352.4
40.0,-100000.0,-17983.4,-100000.0,-100000.0,99622.5,99611.4,99588.8,99643.1
41.0,-100000.0,-17811.4,-100000.0,-100000.0,99771.8,99760.7,99738.5,99793.5
42.0,-100000.0,-17889.0,-100000.0,-100000.0,99550.2,99539.1,99517.3,99572.8
43.0,-100000.0,-18097.4,-100000.0,-100000.0,99315.1,99304.1,99281.7,99336.5
44.0,-100000.0,-18009.6,-100000.0,-100000.0,99564.2,99553.1,99530.4,99584.7
45.0,-100000.0,-17815.0,-100000.0,-100000.0,99770.8,99759.7,99737.3,99792.2
46.0,-100000.0,-17843.0,-100000.0,-100000.0,99612.7,99601.6,99579.7,99635.3
47.0,-100000.0,-18061.7,-100000.0,-100000.0,99320.5,99309.5,99287.2,99342.2
48.0,-100000.0,-18025.7,-100000.0,-100000.0,99505.4,99494.3,99471.6,99525.8
49.0,-100000.0,-17818.1,-100000.0,-100000.0,99759.8,99748.6,99726.3,99781.0
50.0,-100000.0,-17782.1,-100000.0,-100000.0,99671.9,99660.7,99638.9,99694.3
51.0,-100000.0,-17989.9,-100000.0,-100000.0,99352.7,99341.7,99319.6,99374.7
52.0,-100000.0,-18009.2,-100000.0,-100000.0,99453.9,99442.9,99420.1,99474.4
53.0,-100000.0,-17787.2,-100000.0,-100000.0,99746.3,99735.2,99712.7,99767.3
54.0,-100000.0,-17698.4,-100000.0,-100000.0,99730.1,99719.0,99697.0,99752.3
55.0,-100000.0,-17887.3,-100000.0,-100000.0,99410.8,99399.9,99377.8,99433.2
56.0,-100000.0,-17969.1,-100000.0,-100000.0,99417.1,99406.2,99383.4,99437.8
57.0,-100000.0,-17763.8,-100000.0,-100000.0,99728.0,99716.9,99694.4,99748.8
58.0,-100000.0,-17633.2,-100000.0,-100000.0,99779.6,99768.5,99746.5,99801.6
59.0,-100000.0,-17785.5,-100000.0,-100000.0,99482.8,99471.8,99449.9,99505.4
60.0,-100000.0,-17918.6,-100000.0,-100000.0,99390.4,99379.4,99356.8,99411.3
61.0,-100000.0,-17744.2,-100000.0,-100000.0,99699.4,99688.3,99665.8,99720.0
62.0,-100000.0,-17578.6,-100000.0,-100000.0,99814.5,99803.4,99781.3,99836.3
63.0,-100000.0,-17681.8,-100000.0,-100000.0,99560.4,99549.4,99527.5,99583.1
64.0,-100000.0,-17863.9,-100000.0,-100000.0,99378.9,99368.0,99345.5,99400.2
65.0,-100000.0,-17737.4,-100000.0,-100000.0,99661.0,99649.9,99627.3,99681.7
66.0,-100000.0,-17550.1,-100000.0,-100000.0,99834.0,99822.8,99800.6,99855.6
67.0,-100000.0,-17603.5,-100000.0,-100000.0,99635.5,99624.4,99602.6,99658.2
68.0,-100000.0,-17811.9,-100000.0,-100000.0,99379.2,99368.2,99345.8,99400.7
69.0,-100000.0,-17743.1,-100000.0,-100000.0,99609.7,99598.6,99575.9,99630.2
70.0,-100000.0,-17547.9,-100000.0,-100000.0,99835.1,99824.0,99801.7,99856.5
71.0,-100000.0,-17546.1,-100000.0,-100000.0,99701.8,99690.7,99668.9,99724.3
72.0,-100000.0,-17758.0,-100000.0,-100000.0,99398.5,99387.5,99365.4,99420.4
73.0,-100000.0,-17752.1,-100000.0,-100000.0,99553.4,99542.2,99519.6,99573.9
74.0,-100000.0,-17551.1,-100000.0,-100000.0,99819.9,99808.8,99786.5,99841.2
75.0,-100000.0,-17516.6,-100000.0,-100000.0,99755.7,99744.6,99722.7,99778.1
76.0,-100000.0,-17737.6,-100000.0,-100000.0,99430.3,99419.2,99397.2,99452.5
77.0,-100000.0,-17800.9,-100000.0,-100000.0,99494.9,99483.8,99461.2,99515.5
78.0,-100000.0,-17609.5,-100000.0,-100000.0,99790.3,99779.2,99756.8,99811.3
79.0,-100000.0,-17532.7,-100000.0,-100000.0,99793.0,99781.9,99759.9,99815.2
80.0,-100000.0,-17741.1,-100000.0,-100000.0,99472.5,99461.4,99439.5,99495.0
81.0,-100000.0,-17861.1,-100000.0,-100000.0,99437.9,99426.9,99404.2,99458.7
82.0,-100000.0,-17688.5,-100000.0,-100000.0,99746.3,99735.2,99712.8,99767.2
83.0,-100000.0,-17561.8,-100000.0,-100000.0,99813.8,99802.7,99780.7,99835.8
84.0,-100000.0,-17718.1,-100000.0,-100000.0,99524.4,99513.3,99491.4,99547.0
85.0,-100000.0,-17877.0,-100000.0,-100000.0,99395.5,99384.5,99361.9,99416.5
86.0,-100000.0,-17704.2,-100000.0,-100000.0,99693.6,99682.5,99660.0,99714.3
87.0,-100000.0,-17521.5,-100000.0,-100000.0,99824.2,99813.1,99791.0,99846.0
88.0,-100000.0,-17614.2,-100000.0,-100000.0,99582.4,99571.3,99549.4,99605.1
89.0,-100000.0,-17811.9,-100000.0,-100000.0,99367.7,99356.7,99334.2,99389.0
90.0,-100000.0,-17714.7,-100000.0,-100000.0,99629.9,99618.8,99596.1,99650.4
91.0,-100000.0,-17538.7,-100000.0,-100000.0,99817.8,99806.7,99784.4,99839.3
92.0,-100000.0,-17593.6,-100000.0,-100000.0,99638.8,99627.7,99605.9,99661.4
93.0,-100000.0,-17819.5,-100000.0,-100000.0,99361.3,99350.3,99328.0,99382.9
94.0,-100000.0,-17775.4,-100000.0,-100000.0,99565.2,99554.1,99531.5,99585.7
95.0,-100000.0,-17580.9,-100000.0,-100000.0,99802.0,99790.9,99768.6,99823.3
96.0,-100000.0,-17571.8,-100000.0,-100000.0,99690.0,99678.9,99657.1,99712.5
97.0,-100000.0,-17792.0,-100000.0,-100000.0,99374.0,99363.0,99340.9,99396.0
98.0,-100000.0,-17806.2,-100000.0,-100000.0,99498.4,99487.3,99464.6,99518.9
99.0,-100000.0,-17607.4,-100000.0,-100000.0,99774.4,99763.3,99740.9,99795.6
100.0,-100000.0,-17545.8,-100000.0,-100000.0,99731.3,99720.2,99698.2,99753.7
101.0,-100000.0,-17752.6,-100000.0,-100000.0,99405.2,99394.1,99372.1,99427.5
102.0,-100000.0,-17829.4,-100000.0,-100000.0,99437.2,99426.2,99403.4,99457.8
103.0,-100000.0,-17634.5,-100000.0,-100000.0,99739.4,99728.2,99705.7,99760.3
104.0,-100000.0,-17529.5,-100000.0,-100000.0,99765.5,99754.4,99732.4,99787.6
105.0,-100000.0,-17705.8,-100000.0,-100000.0,99455.0,99444.0,99422.1,99477.5
106.0,-100000.0,-17836.8,-100000.0,-100000.0,99389.8,99378.8,99356.2,99410.6
107.0,-100000.0,-17670.9,-100000.0,-100000.0,99697.2,99686.1,99663.5,99718.0
108.0,-100000.0,-17528.5,-100000.0,-100000.0,99786.9,99775.7,99753.6,99808.8
109.0,-100000.0,-17659.9,-100000.0,-100000.0,99512.2,99501.1,99479.2,99534.8
110.0,-100000.0,-17842.3,-100000.0,-100000.0,99352.5,99341.4,99318.9,99373.5
111.0,-100000.0,-17708.1,-100000.0,-100000.0,99641.0,99629.8,99607.2,99661.5
112.0,-100000.0,-17528.4,-100000.0,-100000.0,99792.7,99781.5,99759.4,99814.3
113.0,-100000.0,-17603.1,-100000.0,-100000.0,99573.9,99562.9,99541.0,99596.5
114.0,-100000.0,-17817.9,-100000.0,-100000.0,99336.8,99325.8,99303.4,99358.2
115.0,-100000.0,-17735.9,-100000.0,-100000.0,99581.8,99570.7,99548.0,99602.3
116.0,-100000.0,-17543.6,-100000.0,-100000.0,99787.6,99776.4,99754.2,99809.0
117.0,-100000.0,-17569.1,-100000.0,-100000.0,99632.2,99621.0,99599.2,99654.6
118.0,-100000.0,-17792.5,-100000.0,-100000.0,99338.9,99327.9,99305.6,99360.6
119.0,-100000.0,-17765.2,-100000.0,-100000.0,99519.2,99508.1,99485.4,99539.6
120.0,-100000.0,-17565.5,-100000.0,-100000.0,99772.1,99761.0,99738.6,99793.3
121.0,-100000.0,-17543.8,-100000.0,-100000.0,99684.4,99673.3,99651.4,99706.8
122.0,-100000.0,-17768.1,-100000.0,-100000.0,99363.0,99351.9,99329.9,99385.1
123.0,-100000.0,-17798.2,-100000.0,-100000.0,99458.0,99446.9,99424.2,99478.4
124.0,-100000.0,-17590.6,-100000.0,-100000.0,99745.9,99734.7,99712.4,99766.9
125.0,-100000.0,-17517.1,-100000.0,-100000.0,99727.4,99716.2,99694.3,99749.6
126.0,-100000.0,-17718.8,-100000.0,-100000.0,99404.9,99393.8,99371.8,99427.2
127.0,-100000.0,-17816.1,-100000.0,-100000.0,99403.1,99392.1,99369.4,99423.7
128.0,-100000.0,-17628.9,-100000.0,-100000.0,99709.7,99698.6,99676.0,99730.5
129.0,-100000.0,-17512.4,-100000.0,-100000.0,99758.6,99747.5,99725.5,99780.6
130.0,-100000.0,-17674.9,-100000.0,-100000.0,99459.4,99448.4,99426.4,99481.9
131.0,-100000.0,-17823.2,-100000.0,-100000.0,99360.9,99349.9,99327.2,99381.7
132.0,-100000.0,-17661.3,-100000.0,-100000.0,99665.9,99654.9,99632.2,99686.6
133.0,-100000.0,-17507.9,-100000.0,-100000.0,99777.7,99766.5,99744.4,99799.4
134.0,-100000.0,-17624.3,-100000.0,-100000.0,99521.1,99510.0,99488.2,99543.7
135.0,-100000.0,-17818.9,-100000.0,-100000.0,99334.6,99323.6,99301.1,99355.7
136.0,-100000.0,-17701.8,-100000.0,-100000.0,99611.2,99600.0,99577.4,99631.7
137.0,-100000.0,-17527.4,-100000.0,-100000.0,99781.4,99770.3,99748.0,99803.0
138.0,-100000.0,-17589.5,-100000.0,-100000.0,99583.0,99571.9,99550.0,99605.6
139.0,-100000.0,-17804.6,-100000.0,-100000.0,99323.6,99312.6,99290.3,99345.1
140.0,-100000.0,-17739.9,-100000.0,-100000.0,99547.2,99536.1,99513.4,99567.6
141.0,-100000.0,-17546.0,-100000.0,-100000.0,99769.8,99758.7,99736.4,99791.2
142.0,-100000.0,-17551.8,-100000.0,-100000.0,99635.4,99624.4,99602.5,99657.9
143.0,-100000.0,-17774.8,-100000.0,-100000.0,99327.6,99316.5,99294.4,99349.5
144.0,-100000.0,-17767.3,-100000.0,-100000.0,99478.3,99467.2,99444.5,99498.7
145.0,-100000.0,-17562.7,-100000.0,-100000.0,99742.9,99731.7,99709.4,99764.0
146.0,-100000.0,-17511.9,-100000.0,-100000.0,99678.1,99667.0,99645.1,99700.4
147.0,-100000.0,-17723.7,-100000.0,-100000.0,99352.6,99341.6,99319.5,99374.8
148.0,-100000.0,-17778.3,-100000.0,-100000.0,99414.3,99403.2,99380.5,99434.8
149.0,-100000.0,-17574.7,-100000.0,-100000.0,99709.1,99697.9,99675.5,99730.0
150.0,-100000.0,-17484.3,-100000.0,-100000.0,99712.1,99701.0,99679.0,99734.2
151.0,-100000.0,-17671.9,-100000.0,-100000.0,99391.9,99380.8,99358.8,99414.3
152.0,-100000.0,-17785.7,-100000.0,-100000.0,99354.2,99343.2,99320.6,99374.9
153.0,-100000.0,-17604.8,-100000.0,-100000.0,99660.1,99649.0,99626.4,99680.8
154.0,-100000.0,-17477.0,-100000.0,-100000.0,99729.4,99718.2,99696.2,99751.2
155.0,-100000.0,-17625.2,-100000.0,-100000.0,99440.6,99429.5,99407.7,99463.1
156.0,-100000.0,-17789.7,-100000.0,-100000.0,99307.5,99296.4,99273.9,99328.4
157.0,-100000.0,-17642.5,-100000.0,-100000.0,99602.3,99591.2,99568.6,99622.9
158.0,-100000.0,-17482.6,-100000.0,-100000.0,99731.3,99720.2,99698.1,99753.0
159.0,-100000.0,-17590.7,-100000.0,-100000.0,99491.2,99480.1,99458.3,99513.8
160.0,-100000.0,-17794.0,-100000.0,-100000.0,99272.1,99261.1,99238.7,99293.4
161.0,-100000.0,-17685.7,-100000.0,-100000.0,99530.8,99519.7,99497.1,99551.3
162.0,-100000.0,-17503.8,-100000.0,-100000.0,99718.8,99707.7,99685.4,99740.2
163.0,-100000.0,-17554.6,-100000.0,-100000.0,99540.2,99529.1,99507.2,99562.7
164.0,-100000.0,-17782.2,-100000.0,-100000.0,99258.5,99247.6,99225.2,99280.1
165.0,-100000.0,-17735.2,-100000.0,-100000.0,99458.3,99447.2,99424.6,99478.6
166.0,-100000.0,-17534.1,-100000.0,-100000.0,99697.0,99685.9,99663.5,99718.2
167.0,-100000.0,-17530.0,-100000.0,-100000.0,99585.8,99574.7,99552.8,99608.2
168.0,-100000.0,-17754.4,-100000.0,-100000.0,99266.6,99255.6,99233.4,99288.6
169.0,-100000.0,-17762.4,-100000.0,-100000.0,99388.0,99376.9,99354.2,99408.5
170.0,-100000.0,-17558.7,-100000.0,-100000.0,99665.8,99654.7,99632.3,99686.8
171.0,-100000.0,-17504.1,-100000.0,-100000.0,99625.1,99614.0,99592.1,99647.3
172.0,-100000.0,-17714.4,-100000.0,-100000.0,99296.3,99285.3,99263.3,99318.6
173.0,-100000.0,-17788.1,-100000.0,-100000.0,99323.0,99312.0,99289.3,99343.5
174.0,-100000.0,-17594.3,-100000.0,-100000.0,99623.3,99612.2,99589.7,99644.1
175.0,-100000.0,-17492.9,-100000.0,-100000.0,99649.3,99638.3,99616.2,99671.4
176.0,-100000.0,-17668.8,-100000.0,-100000.0,99337.8,99326.8,99304.9,99360.3
177.0,-100000.0,-17800.2,-100000.0,-100000.0,99266.2,99255.2,99232.5,99287.0
178.0,-100000.0,-17629.5,-100000.0,-100000.0,99571.0,99559.8,99537.3,99591.6
179.0,-100000.0,-17492.3,-100000.0,-100000.0,99661.6,99650.5,99628.4,99683.4
180.0,-100000.0,-17628.8,-100000.0,-100000.0,99388.6,99377.5,99355.6,99411.2
181.0,-100000.0,-17810.2,-100000.0,-100000.0,99223.1,99212.1,99189.5,99244.1
182.0,-100000.0,-17670.0,-100000.0,-100000.0,99509.4,99498.3,99475.7,99529.9
183.0,-100000.0,-17500.0,-100000.0,-100000.0,99661.8,99650.7,99628.5,99683.4
184.0,-100000.0,-17587.3,-100000.0,-100000.0,99443.0,99431.9,99410.1,99465.6
185.0,-100000.0,-17795.9,-100000.0,-100000.0,99200.2,99189.3,99166.9,99221.6
186.0,-100000.0,-17705.6,-100000.0,-100000.0,99442.6,99431.6,99408.9,99463.0
187.0,-100000.0,-17514.2,-100000.0,-100000.0,99649.9,99638.8,99616.5,99671.2
188.0,-100000.0,-17539.5,-100000.0,-100000.0,99494.7,99483.6,99461.8,99517.2
189.0,-100000.0,-17770.4,-100000.0,-100000.0,99197.8,99186.8,99164.6,99219.5
190.0,-100000.0,-17732.1,-100000.0,-100000.0,99374.3,99363.3,99340.5,99394.6
191.0,-100000.0,-17526.9,-100000.0,-100000.0,99628.6,99617.6,99595.2,99649.8
192.0,-100000.0,-17503.1,-100000.0,-100000.0,99541.6,99530.6,99508.6,99564.0
193.0,-100000.0,-17729.7,-100000.0,-100000.0,99217.1,99206.1,99184.1,99239.2
194.0,-100000.0,-17764.5,-100000.0,-100000.0,99307.9,99296.9,99274.1,99328.3
195.0,-100000.0,-17559.8,-100000.0,-100000.0,99596.2,99585.1,99562.5,99617.1
196.0,-100000.0,-17484.4,-100000.0,-100000.0,99579.2,99568.2,99546.1,99601.4
197.0,-100000.0,-17685.9,-100000.0,-100000.0,99253.9,99243.0,99220.9,99276.4
198.0,-100000.0,-17779.5,-100000.0,-100000.0,99245.5,99234.5,99211.8,99266.2
199.0,-100000.0,-17589.1,-100000.0,-100000.0,99551.5,99540.4,99517.8,99572.3
200.0,-100000.0,-17471.1,-100000.0,-100000.0,99601.6,99590.4,99568.4,99623.5
201.0,-100000.0,-17636.3,-100000.0,-100000.0,99300.5,99289.4,99267.5,99323.0
202.0,-100000.0,-17790.6,-100000.0,-100000.0,99194.8,99183.8,99161.2,99215.6
203.0,-100000.0,-17624.6,-100000.0,-100000.0,99498.4,99487.3,99464.7,99519.1
204.0,-100000.0,-17464.9,-100000.0,-100000.0,99613.3,99602.2,99580.1,99635.0
205.0,-100000.0,-17576.6,-100000.0,-100000.0,99357.6,99346.6,99324.7,99380.2
206.0,-100000.0,-17769.6,-100000.0,-100000.0,99163.9,99153.0,99130.5,99185.1
207.0,-100000.0,-17643.2,-100000.0,-100000.0,99437.9,99426.9,99404.2,99458.4
208.0,-100000.0,-17461.1,-100000.0,-100000.0,99610.6,99599.6,99577.4,99632.2
209.0,-100000.0,-17525.1,-100000.0,-100000.0,99413.9,99402.9,99381.0,99436.4
210.0,-100000.0,-17739.8,-100000.0,-100000.0,99151.2,99140.2,99117.8,99172.6
211.0,-100000.0,-17672.4,-100000.0,-100000.0,99374.0,99363.0,99340.2,99394.3
212.0,-100000.0,-17474.4,-100000.0,-100000.0,99600.7,99589.7,99567.3,99622.0
213.0,-100000.0,-17476.5,-100000.0,-100000.0,99472.7,99461.7,99439.8,99495.2
214.0,-100000.0,-17697.2,-100000.0,-100000.0,99165.0,99154.0,99131.8,99186.8
215.0,-100000.0,-17680.5,-100000.0,-100000.0,99313.9,99302.9,99280.2,99334.3
216.0,-100000.0,-17473.8,-100000.0,-100000.0,99582.5,99571.4,99549.0,99603.6
217.0,-100000.0,-17430.0,-100000.0,-100000.0,99522.3,99511.2,99489.2,99544.6
218.0,-100000.0,-17641.4,-100000.0,-100000.0,99196.3,99185.3,99163.2,99218.5
219.0,-100000.0,-17690.8,-100000.0,-100000.0,99255.0,99244.0,99221.3,99275.5
220.0,-100000.0,-17483.7,-100000.0,-100000.0,99552.9,99541.8,99519.2,99573.8
221.0,-100000.0,-17392.0,-100000.0,-100000.0,99560.3,99549.2,99527.1,99582.4
222.0,-100000.0,-17582.6,-100000.0,-100000.0,99241.9,99230.8,99208.8,99264.2
223.0,-100000.0,-17695.1,-100000.0,-100000.0,99201.6,99190.6,99167.9,99222.3
224.0,-100000.0,-17510.3,-100000.0,-100000.0,99510.0,99498.9,99476.3,99530.7
225.0,-100000.0,-17379.0,-100000.0,-100000.0,99583.0,99571.9,99549.8,99604.9
226.0,-100000.0,-17526.7,-100000.0,-100000.0,99297.3,99286.3,99264.4,99319.9
227.0,-100000.0,-17684.7,-100000.0,-100000.0,99160.4,99149.5,99126.9,99181.4
228.0,-100000.0,-17529.4,-100000.0,-100000.0,99456.7,99445.6,99423.0,99477.2
229.0,-100000.0,-17366.3,-100000.0,-100000.0,99591.8,99580.7,99558.5,99613.4
230.0,-100000.0,-17462.3,-100000.0,-100000.0,99355.6,99344.6,99322.7,99378.2
231.0,-100000.0,-17671.3,-100000.0,-100000.0,99135.7,99124.7,99102.2,99156.9
232.0,-100000.0,-17569.8,-100000.0,-100000.0,99396.1,99385.0,99362.3,99416.5
233.0,-100000.0,-17375.8,-100000.0,-100000.0,99589.1,99578.1,99555.8,99610.6
234.0,-100000.0,-17423.9,-100000.0,-100000.0,99414.4,99403.4,99381.4,99436.9
235.0,-100000.0,-17652.4,-100000.0,-100000.0,99131.2,99120.3,99097.9,99152.8
236.0,-100000.0,-17600.2,-100000.0,-100000.0,99330.4,99319.4,99296.6,99350.7
237.0,-100000.0,-17402.9,-100000.0,-100000.0,99572.5,99561.5,99539.1,99593.8
238.0,-100000.0,-17394.1,-100000.0,-100000.0,99465.3,99454.2,99432.2,99487.7
239.0,-100000.0,-17619.7,-100000.0,-100000.0,99146.7,99135.7,99113.5,99168.6
240.0,-100000.0,-17619.0,-100000.0,-100000.0,99266.0,99255.0,99232.3,99286.5
241.0,-100000.0,-17401.6,-100000.0,-100000.0,99546.0,99535.0,99512.5,99567.0
242.0,-100000.0,-17346.1,-100000.0,-100000.0,99507.9,99496.8,99474.8,99530.0
243.0,-100000.0,-17558.5,-100000.0,-100000.0,99181.0,99170.0,99147.9,99203.2
244.0,-100000.0,-17634.7,-100000.0,-100000.0,99204.7,99193.7,99170.9,99225.2
245.0,-100000.0,-17433.8,-100000.0,-100000.0,99508.0,99496.9,99474.3,99528.8
246.0,-100000.0,-17328.5,-100000.0,-100000.0,99539.4,99528.3,99506.2,99561.4
247.0,-100000.0,-17504.2,-100000.0,-100000.0,99229.4,99218.4,99196.4,99251.8
248.0,-100000.0,-17640.4,-100000.0,-100000.0,99153.1,99142.2,99119.5,99173.9
249.0,-100000.0,-17464.7,-100000.0,-100000.0,99459.1,99448.1,99425.4,99479.8
250.0,-100000.0,-17318.1,-100000.0,-100000.0,99553.3,99542.2,99520.1,99575.1
251.0,-100000.0,-17450.3,-100000.0,-100000.0,99282.3,99271.2,99249.3,99304.8
252.0,-100000.0,-17632.7,-100000.0,-100000.0,99114.3,99103.2,99080.6,99135.2
253.0,-100000.0,-17501.2,-100000.0,-100000.0,99399.8,99388.7,99366.0,99420.2
254.0,-100000.0,-17323.4,-100000.0,-100000.0,99553.6,99542.5,99520.2,99575.1
255.0,-100000.0,-17403.3,-100000.0,-100000.0,99336.6,99325.5,99303.7,99359.1
0.0,-100000.0,-17622.8,-100000.0,-100000.0,99090.4,99079.4,99056.9,99111.7
1.0,-100000.0,-17537.7,-100000.0,-100000.0,99330.0,99319.0,99296.2,99350.4
2.0,-100000.0,-17340.4,-100000.0,-100000.0,99539.5,99528.4,99506.1,99560.8
3.0,-100000.0,-17369.4,-100000.0,-100000.0,99387.3,99376.2,99354.2,99409.7
4.0,-100000.0,-17601.0,-100000.0,-100000.0,99088.4,99077.4,99055.0,99110.0
5.0,-100000.0,-17569.7,-100000.0,-100000.0,99259.5,99248.5,99225.7,99279.9
6.0,-100000.0,-17370.1,-100000.0,-100000.0,99512.9,99501.8,99479.4,99534.0
7.0,-100000.0,-17351.0,-100000.0,-100000.0,99428.7,99417.6,99395.6,99451.0
8.0,-100000.0,-17582.2,-100000.0,-100000.0,99103.6,99092.6,99070.4,99125.7
9.0,-100000.0,-17617.5,-100000.0,-100000.0,99188.2,99177.2,99154.4,99208.6
10.0,-100000.0,-17422.4,-100000.0,-100000.0,99476.6,99465.6,99443.0,99497.5
11.0,-100000.0,-17365.4,-100000.0,-100000.0,99462.1,99451.0,99428.9,99484.1
12.0,-100000.0,-17585.0,-100000.0,-100000.0,99136.7,99125.6,99103.6,99158.9
13.0,-100000.0,-17685.3,-100000.0,-100000.0,99123.4,99112.4,99089.6,99143.9
14.0,-100000.0,-17489.4,-100000.0,-100000.0,99429.6,99418.6,99395.9,99450.3
15.0,-100000.0,-17375.7,-100000.0,-100000.0,99481.5,99470.4,99448.3,99503.4
16.0,-100000.0,-17549.3,-100000.0,-100000.0,99181.5,99170.4,99148.5,99203.9
17.0,-100000.0,-17687.0,-100000.0,-100000.0,99070.8,99059.9,99037.2,99091.6
18.0,-100000.0,-17488.5,-100000.0,-100000.0,99373.6,99362.6,99339.8,99394.1
19.0,-100000.0,-17315.7,-100000.0,-100000.0,99489.3,99478.2,99456.0,99511.0
20.0,-100000.0,-17428.6,-100000.0,-100000.0,99235.9,99224.8,99202.8,99258.4
21.0,-100000.0,-17620.9,-100000.0,-100000.0,99038.1,99027.1,99004.5,99059.2
22.0,-100000.0,-17495.1,-100000.0,-100000.0,99309.3,99298.3,99275.5,99329.7
23.0,-100000.0,-17318.3,-100000.0,-100000.0,99484.1,99473.0,99450.6,99505.5
24.0,-100000.0,-17392.8,-100000.0,-100000.0,99288.6,99277.6,99255.6,99311.1
25.0,-100000.0,-17624.6,-100000.0,-100000.0,99022.3,99011.3,98988.9,99043.7
26.0,-100000.0,-17555.8,-100000.0,-100000.0,99241.3,99230.3,99207.5,99261.6
27.0,-100000.0,-17348.2,-100000.0,-100000.0,99467.9,99456.8,99434.4,99489.0
28.0,-100000.0,-17356.0,-100000.0,-100000.0,99339.3,99328.3,99306.2,99361.7
29.0,-100000.0,-17590.3,-100000.0,-100000.0,99027.4,99016.4,98994.0,99049.2
30.0,-100000.0,-17585.6,-100000.0,-100000.0,99170.2,99159.3,99136.4,99190.6
31.0,-100000.0,-17379.4,-100000.0,-100000.0,99439.4,99428.3,99405.8,99460.4
32.0,-100000.0,-17334.8,-100000.0,-100000.0,99379.7,99368.7,99346.6,99401.9
33.0,-100000.0,-17557.6,-100000.0,-100000.0,99050.4,99039.4,99017.2,99072.4
34.0,-100000.0,-17612.6,-100000.0,-100000.0,99102.1,99091.1,99068.3,99122.5
35.0,-100000.0,-17403.1,-100000.0,-100000.0,99398.5,99387.5,99364.8,99419.3
36.0,-100000.0,-17315.8,-100000.0,-100000.0,99407.3,99396.3,99374.1,99429.3
37.0,-100000.0,-17511.1,-100000.0,-100000.0,99089.3,99078.3,99056.2,99111.6
38.0,-100000.0,-17632.1,-100000.0,-100000.0,99043.7,99032.7,99009.9,99064.3
39.0,-100000.0,-17444.5,-100000.0,-100000.0,99351.3,99340.2,99317.6,99371.9
40.0,-100000.0,-17309.8,-100000.0,-100000.0,99427.2,99416.1,99394.0,99449.0
41.0,-100000.0,-17464.3,-100000.0,-100000.0,99142.2,99131.2,99109.2,99164.7
42.0,-100000.0,-17633.4,-100000.0,-100000.0,99000.0,98989.0,98966.4,99020.9
43.0,-100000.0,-17479.3,-100000.0,-100000.0,99294.2,99283.1,99260.5,99314.7
44.0,-100000.0,-17312.3,-100000.0,-100000.0,99429.2,99418.2,99395.9,99450.8
45.0,-100000.0,-17415.1,-100000.0,-100000.0,99194.5,99183.5,99161.6,99217.0
46.0,-100000.0,-17627.1,-100000.0,-100000.0,98969.7,98958.7,98936.1,98990.9
47.0,-100000.0,-17519.9,-100000.0,-100000.0,99226.2,99215.2,99192.4,99246.6
48.0,-100000.0,-17334.0,-100000.0,-100000.0,99420.6,99409.5,99387.1,99441.9
49.0,-100000.0,-17387.5,-100000.0,-100000.0,99249.2,99238.1,99216.1,99271.6
50.0,-100000.0,-17617.3,-100000.0,-100000.0,98963.4,98952.5,98930.0,98985.0
51.0,-100000.0,-17566.0,-100000.0,-100000.0,99157.4,99146.4,99123.6,99177.7
52.0,-100000.0,-17354.2,-100000.0,-100000.0,99399.8,99388.7,99366.2,99420.9
53.0,-100000.0,-17351.9,-100000.0,-100000.0,99295.1,99284.0,99262.0,99317.4
54.0,-100000.0,-17589.0,-100000.0,-100000.0,98975.2,98964.2,98942.0,98997.1
55.0,-100000.0,-17604.1,-100000.0,-100000.0,99088.6,99077.6,99054.7,99108.9
56.0,-100000.0,-17398.7,-100000.0,-100000.0,99369.2,99358.2,99335.6,99390.1
57.0,-100000.0,-17343.1,-100000.0,-100000.0,99333.9,99322.9,99300.8,99356.1
58.0,-100000.0,-17564.5,-100000.0,-100000.0,99004.9,98993.9,98971.7,99027.1
59.0,-100000.0,-17645.3,-100000.0,-100000.0,99022.2,99011.3,98988.4,99042.7
60.0,-100000.0,-17447.3,-100000.0,-100000.0,99325.6,99314.5,99291.8,99346.3
61.0,-100000.0,-17347.1,-100000.0,-100000.0,99358.5,99347.5,99325.3,99380.4
62.0,-100000.0,-17538.5,-100000.0,-100000.0,99048.5,99037.5,99015.5,99070.9
63.0,-100000.0,-17679.1,-100000.0,-100000.0,98966.1,98955.1,98932.4,98986.7
64.0,-100000.0,-17506.8,-100000.0,-100000.0,99270.5,99259.4,99236.7,99291.0
65.0,-100000.0,-17372.6,-100000.0,-100000.0,99365.9,99354.8,99332.6,99387.6
66.0,-100000.0,-17517.7,-100000.0,-100000.0,99095.5,99084.4,99062.4,99117.9
67.0,-100000.0,-17704.7,-100000.0,-100000.0,98922.4,98911.4,98888.7,98943.3
68.0,-100000.0,-17559.7,-100000.0,-100000.0,99206.7,99195.7,99172.8,99227.1
69.0,-100000.0,-17387.5,-100000.0,-100000.0,99364.1,99353.1,99330.7,99385.6
70.0,-100000.0,-17476.7,-100000.0,-100000.0,99149.9,99138.9,99116.9,99172.4
71.0,-100000.0,-17698.8,-100000.0,-100000.0,98900.4,98889.3,98866.8,98921.6
72.0,-100000.0,-17609.6,-100000.0,-100000.0,99137.3,99126.2,99103.4,99157.5
73.0,-100000.0,-17410.3,-100000.0,-100000.0,99350.2,99339.0,99316.7,99371.4
74.0,-100000.0,-17438.3,-100000.0,-100000.0,99199.9,99188.8,99166.8,99222.2
75.0,-100000.0,-17672.2,-100000.0,-100000.0,98897.2,98886.2,98863.9,98918.9
76.0,-100000.0,-17635.9,-100000.0,-100000.0,99065.7,99054.7,99031.8,99086.0
77.0,-100000.0,-17419.5,-100000.0,-100000.0,99325.1,99314.1,99291.6,99346.2
78.0,-100000.0,-17389.3,-100000.0,-100000.0,99245.3,99234.3,99212.2,99267.5
79.0,-100000.0,-17615.2,-100000.0,-100000.0,98918.5,98907.6,98885.4,98940.5
80.0,-100000.0,-17641.9,-100000.0,-100000.0,98999.2,98988.3,98965.4,99019.6
81.0,-100000.0,-17429.2,-100000.0,-100000.0,99289.6,99278.6,99256.0,99310.5
82.0,-100000.0,-17346.6,-100000.0,-100000.0,99278.3,99267.3,99245.2,99300.4
83.0,-100000.0,-17548.6,-100000.0,-100000.0,98953.1,98942.1,98920.0,98975.3
84.0,-100000.0,-17645.5,-100000.0,-100000.0,98936.6,98925.7,98902.8,98957.1
85.0,-100000.0,-17447.6,-100000.0,-100000.0,99242.6,99231.6,99208.9,99263.3
86.0,-100000.0,-17323.2,-100000.0,-100000.0,99297.9,99286.9,99264.6,99319.7
87.0,-100000.0,-17489.3,-100000.0,-100000.0,98999.7,98988.8,98966.7,99022.2
88.0,-100000.0,-17640.3,-100000.0,-100000.0,98885.2,98874.3,98851.6,98906.0
89.0,-100000.0,-17472.4,-100000.0,-100000.0,99185.0,99174.0,99151.3,99205.6
90.0,-100000.0,-17320.0,-100000.0,-100000.0,99303.2,99292.2,99269.9,99324.9
91.0,-100000.0,-17439.2,-100000.0,-100000.0,99053.1,99042.1,99020.1,99075.6
92.0,-100000.0,-17622.2,-100000.0,-100000.0,98852.3,98841.4,98818.7,98873.4
93.0,-100000.0,-17495.7,-100000.0,-100000.0,99122.2,99111.2,99088.3,99142.6
94.0,-100000.0,-17309.9,-100000.0,-100000.0,99299.8,99288.7,99266.3,99321.1
95.0,-100000.0,-17375.7,-100000.0,-100000.0,99108.4,99097.5,99075.3,99130.8
96.0,-100000.0,-17602.2,-100000.0,-100000.0,98839.4,98828.4,98805.9,98860.7
97.0,-100000.0,-17530.7,-100000.0,-100000.0,99055.5,99044.5,99021.6,99075.7
98.0,-100000.0,-17319.2,-100000.0,-100000.0,99284.3,99273.3,99250.7,99305.4
99.0,-100000.0,-17324.0,-100000.0,-100000.0,99159.3,99148.3,99126.2,99181.6
100.0,-100000.0,-17556.9,-100000.0,-100000.0,98846.6,98835.7,98813.2,98868.4
101.0,-100000.0,-17552.6,-100000.0,-100000.0,98985.8,98974.8,98951.8,99006.1
102.0,-100000.0,-17343.5,-100000.0,-100000.0,99255.5,99244.5,99221.9,99276.5
103.0,-100000.0,-17298.4,-100000.0,-100000.0,99200.9,99190.0,99167.8,99223.1
104.0,-100000.0,-17520.2,-100000.0,-100000.0,98872.0,98861.1,98838.8,98894.0
105.0,-100000.0,-17572.0,-100000.0,-100000.0,98919.3,98908.3,98885.4,98939.6
106.0,-100000.0,-17358.2,-100000.0,-100000.0,99218.1,99207.0,99184.4,99238.9
107.0,-100000.0,-17258.7,-100000.0,-100000.0,99232.3,99221.3,99199.1,99254.3
108.0,-100000.0,-17454.5,-100000.0,-100000.0,98914.8,98903.8,98881.7,98937.1
109.0,-100000.0,-17578.1,-100000.0,-100000.0,98863.6,98852.7,98829.8,98884.2
110.0,-100000.0,-17389.0,-100000.0,-100000.0,99172.0,99161.0,99138.2,99192.6
111.0,-100000.0,-17250.3,-100000.0,-100000.0,99250.2,99239.2,99216.9,99272.0
112.0,-100000.0,-17399.8,-100000.0,-100000.0,98969.4,98958.4,98936.4,98991.9
113.0,-100000.0,-17570.9,-100000.0,-100000.0,98823.5,98812.6,98789.9,98844.4
114.0,-100000.0,-17412.2,-100000.0,-100000.0,99116.4,99105.3,99082.6,99136.8
115.0,-100000.0,-17243.2,-100000.0,-100000.0,99257.2,99246.2,99223.8,99278.7
116.0,-100000.0,-17342.9,-100000.0,-100000.0,99026.2,99015.2,98993.2,99048.7
117.0,-100000.0,-17550.3,-100000.0,-100000.0,98799.7,98788.8,98766.2,98820.9
118.0,-100000.0,-17442.3,-100000.0,-100000.0,99055.0,99044.0,99021.2,99075.4
119.0,-100000.0,-17249.8,-100000.0,-100000.0,99251.6,99240.6,99218.1,99272.8
120.0,-100000.0,-17294.6,-100000.0,-100000.0,99083.5,99072.5,99050.4,99105.9
121.0,-100000.0,-17517.4,-100000.0,-100000.0,98796.7,98785.9,98763.4,98818.4
122.0,-100000.0,-17464.2,-100000.0,-100000.0,98988.7,98977.8,98954.9,99009.0
123.0,-100000.0,-17251.1,-100000.0,-100000.0,99235.5,99224.5,99201.9,99256.6
124.0,-100000.0,-17241.2,-100000.0,-100000.0,99135.3,99124.4,99102.2,99157.6
125.0,-100000.0,-17473.9,-100000.0,-100000.0,98814.0,98803.0,98780.7,98835.8
126.0,-100000.0,-17483.8,-100000.0,-100000.0,98924.2,98913.2,98890.3,98944.5
127.0,-100000.0,-17267.7,-100000.0,-100000.0,99207.3,99196.2,99173.6,99228.2
128.0,-100000.0,-17206.2,-100000.0,-100000.0,99175.9,99164.9,99142.8,99198.1
129.0,-100000.0,-17422.0,-100000.0,-100000.0,98849.0,98838.1,98815.9,98871.2
130.0,-100000.0,-17498.5,-100000.0,-100000.0,98861.3,98850.4,98827.5,98881.8
131.0,-100000.0,-17294.3,-100000.0,-100000.0,99166.1,99155.0,99132.4,99186.8
132.0,-100000.0,-17186.2,-100000.0,-100000.0,99204.3,99193.3,99171.0,99226.2
133.0,-100000.0,-17370.4,-100000.0,-100000.0,98898.7,98887.8,98865.6,98921.0
134.0,-100000.0,-17509.5,-100000.0,-100000.0,98812.9,98802.1,98779.2,98833.6
135.0,-100000.0,-17326.5,-100000.0,-100000.0,99118.1,99107.1,99084.3,99138.6
136.0,-100000.0,-17174.5,-100000.0,-100000.0,99219.3,99208.2,99186.0,99240.9
137.0,-100000.0,-17312.4,-100000.0,-100000.0,98953.7,98942.7,98920.7,98976.1
138.0,-100000.0,-17501.4,-100000.0,-100000.0,98777.9,98767.0,98744.3,98798.9
139.0,-100000.0,-17359.4,-100000.0,-100000.0,99061.7,99050.7,99027.8,99082.1
140.0,-100000.0,-17182.4,-100000.0,-100000.0,99223.6,99212.5,99190.1,99245.0
141.0,-100000.0,-17267.4,-100000.0,-100000.0,99013.5,99002.4,98980.4,99035.9
142.0,-100000.0,-17486.7,-100000.0,-100000.0,98761.6,98750.7,98728.1,98782.9
143.0,-100000.0,-17394.1,-100000.0,-100000.0,98996.9,98985.8,98963.0,99017.1
144.0,-100000.0,-17189.1,-100000.0,-100000.0,99212.7,99201.6,99179.2,99233.9
145.0,-100000.0,-17223.0,-100000.0,-100000.0,99066.6,99055.5,99033.5,99088.9
146.0,-100000.0,-17461.9,-100000.0,-100000.0,98763.2,98752.2,98729.8,98784.8
147.0,-100000.0,-17428.5,-100000.0,-100000.0,98928.0,98917.0,98894.1,98948.2
148.0,-100000.0,-17212.6,-100000.0,-100000.0,99187.8,99176.7,99154.2,99208.8
149.0,-100000.0,-17183.7,-100000.0,-100000.0,99110.8,99099.8,99077.7,99133.0
150.0,-100000.0,-17411.4,-100000.0,-100000.0,98784.1,98773.1,98750.9,98806.0
151.0,-100000.0,-17448.9,-100000.0,-100000.0,98861.2,98850.3,98827.4,98881.6
152.0,-100000.0,-17242.0,-100000.0,-100000.0,99155.2,99144.1,99121.5,99176.0
153.0,-100000.0,-17158.3,-100000.0,-100000.0,99147.9,99136.8,99114.6,99169.8
154.0,-100000.0,-17363.2,-100000.0,-100000.0,98823.1,98812.1,98789.9,98845.2
155.0,-100000.0,-17464.4,-100000.0,-100000.0,98802.3,98791.4,98768.5,98822.8
156.0,-100000.0,-17270.4,-100000.0,-100000.0,99110.6,99099.5,99076.9,99131.2
157.0,-100000.0,-17149.0,-100000.0,-100000.0,99169.6,99158.5,99136.3,99191.3
158.0,-100000.0,-17317.8,-100000.0,-100000.0,98873.0,98862.1,98839.9,98895.4
159.0,-100000.0,-17475.5,-100000.0,-100000.0,98754.0,98743.0,98720.3,98774.7
160.0,-100000.0,-17307.7,-100000.0,-100000.0,99055.0,99044.0,99021.1,99075.5
161.0,-100000.0,-17147.6,-100000.0,-100000.0,99179.3,99168.2,99145.8,99200.8
162.0,-100000.0,-17266.2,-100000.0,-100000.0,98931.8,98920.7,98898.6,98954.1
163.0,-100000.0,-17467.3,-100000.0,-100000.0,98727.2,98716.2,98693.5,98748.2
164.0,-100000.0,-17345.0,-100000.0,-100000.0,98996.7,98985.7,98962.8,99017.1
165.0,-100000.0,-17158.1,-100000.0,-100000.0,99178.3,99167.2,99144.7,99199.6
166.0,-100000.0,-17226.6,-100000.0,-100000.0,98989.2,98978.1,98956.1,99011.6
167.0,-100000.0,-17456.9,-100000.0,-100000.0,98715.2,98704.2,98681.7,98736.6
168.0,-100000.0,-17382.6,-100000.0,-100000.0,98928.9,98917.9,98894.9,98949.1
169.0,-100000.0,-17169.0,-100000.0,-100000.0,99161.2,99150.1,99127.6,99182.3
170.0,-100000.0,-17175.7,-100000.0,-100000.0,99038.9,99027.8,99005.7,99061.2
171.0,-100000.0,-17419.8,-100000.0,-100000.0,98723.9,98713.0,98690.5,98745.7
172.0,-100000.0,-17416.2,-100000.0,-100000.0,98859.5,98848.5,98825.5,98879.7
173.0,-100000.0,-17209.8,-100000.0,-100000.0,99132.8,99121.8,99099.2,99153.8
174.0,-100000.0,-17168.4,-100000.0,-100000.0,99079.8,99068.8,99046.7,99102.0
175.0,-100000.0,-17394.6,-100000.0,-100000.0,98750.4,98739.5,98717.1,98772.4
176.0,-100000.0,-17452.4,-100000.0,-100000.0,98793.2,98782.3,98759.2,98813.5
177.0,-100000.0,-17245.6,-100000.0,-100000.0,99093.3,99082.4,99059.6,99114.1
178.0,-100000.0,-17149.8,-100000.0,-100000.0,99108.6,99097.6,99075.3,99130.5
179.0,-100000.0,-17346.1,-100000.0,-100000.0,98792.0,98781.1,98758.9,98814.4
180.0,-100000.0,-17468.8,-100000.0,-100000.0,98736.8,98725.9,98703.0,98757.4
181.0,-100000.0,-17271.3,-100000.0,-100000.0,99045.2,99034.2,99011.3,99065.7
182.0,-100000.0,-17126.7,-100000.0,-100000.0,99127.1,99116.1,99093.7,99148.8
183.0,-100000.0,-17279.1,-100000.0,-100000.0,98847.8,98836.8,98814.7,98870.2
184.0,-100000.0,-17451.9,-100000.0,-100000.0,98699.5,98688.6,98665.8,98720.4
185.0,-100000.0,-17296.3,-100000.0,-100000.0,98991.6,98980.7,98957.7,99012.0
186.0,-100000.0,-17126.8,-100000.0,-100000.0,99133.8,99122.8,99100.4,99155.3
187.0,-100000.0,-17230.5,-100000.0,-100000.0,98903.4,98892.4,98870.3,98925.9
188.0,-100000.0,-17446.0,-100000.0,-100000.0,98672.0,98661.1,98638.4,98693.2
189.0,-100000.0,-17333.6,-100000.0,-100000.0,98925.4,98914.5,98891.5,98945.7
190.0,-100000.0,-17134.8,-100000.0,-100000.0,99125.5,99114.5,99091.9,99146.8
191.0,-100000.0,-17179.3,-100000.0,-100000.0,98959.5,98948.6,98926.4,98981.9
192.0,-100000.0,-17406.6,-100000.0,-100000.0,98669.6,98658.6,98636.1,98691.1
193.0,-100000.0,-17358.0,-100000.0,-100000.0,98858.9,98847.9,98825.0,98879.2
194.0,-100000.0,-17148.5,-100000.0,-100000.0,99106.6,99095.5,99072.9,99127.6
195.0,-100000.0,-17136.9,-100000.0,-100000.0,99007.2,98996.2,98974.0,99029.4
196.0,-100000.0,-17373.4,-100000.0,-100000.0,98683.6,98672.6,98650.3,98705.5
197.0,-100000.0,-17385.1,-100000.0,-100000.0,98787.6,98776.6,98753.7,98808.0
198.0,-100000.0,-17169.8,-100000.0,-100000.0,99072.2,99061.1,99038.5,99093.0
199.0,-100000.0,-17107.2,-100000.0,-100000.0,99043.9,99032.9,99010.6,99065.9
200.0,-100000.0,-17326.4,-100000.0,-100000.0,98715.5,98704.6,98682.3,98737.7
201.0,-100000.0,-17409.5,-100000.0,-100000.0,98724.2,98713.3,98690.3,98744.6
202.0,-100000.0,-17203.2,-100000.0,-100000.0,99030.1,99019.0,98996.3,99050.7
203.0,-100000.0,-17086.8,-100000.0,-100000.0,99069.7,99058.7,99036.4,99091.6
204.0,-100000.0,-17274.0,-100000.0,-100000.0,98764.1,98753.2,98731.0,98786.5
205.0,-100000.0,-17426.9,-100000.0,-100000.0,98675.7,98664.8,98642.0,98696.4
206.0,-100000.0,-17251.6,-100000.0,-100000.0,98980.8,98969.8,98947.0,99001.3
207.0,-100000.0,-17107.1,-100000.0,-100000.0,99083.8,99072.7,99050.4,99105.4
208.0,-100000.0,-17257.8,-100000.0,-100000.0,98817.9,98807.0,98784.9,98840.4
209.0,-100000.0,-17464.0,-100000.0,-100000.0,98638.2,98627.4,98604.6,98659.2
210.0,-100000.0,-17328.2,-100000.0,-100000.0,98918.8,98907.9,98884.9,98939.2
211.0,-100000.0,-17150.3,-100000.0,-100000.0,99080.6,99069.5,99047.1,99102.0
212.0,-100000.0,-17233.3,-100000.0,-100000.0,98871.2,98860.3,98838.2,98893.7
213.0,-100000.0,-17460.1,-100000.0,-100000.0,98616.2,98605.3,98582.7,98637.5
214.0,-100000.0,-17353.7,-100000.0,-100000.0,98848.5,98837.4,98814.5,98868.7
215.0,-100000.0,-17118.7,-100000.0,-100000.0,99067.3,99056.3,99033.8,99088.5
216.0,-100000.0,-17131.2,-100000.0,-100000.0,98924.5,98913.5,98891.4,98946.9
217.0,-100000.0,-17364.0,-100000.0,-100000.0,98619.7,98608.8,98586.3,98641.4
218.0,-100000.0,-17327.9,-100000.0,-100000.0,98780.7,98769.7,98746.7,98800.9
219.0,-100000.0,-17111.6,-100000.0,-100000.0,99041.3,99030.2,99007.6,99062.2
220.0,-100000.0,-17093.3,-100000.0,-100000.0,98967.0,98956.0,98933.8,98989.2
221.0,-100000.0,-17333.5,-100000.0,-100000.0,98639.4,98628.5,98606.2,98661.4
222.0,-100000.0,-17375.8,-100000.0,-100000.0,98712.3,98701.3,98678.4,98732.6
223.0,-100000.0,-17165.7,-100000.0,-100000.0,99005.9,98994.9,98972.2,99026.6
224.0,-100000.0,-17088.4,-100000.0,-100000.0,99000.8,98989.7,98967.5,99022.7
225.0,-100000.0,-17299.4,-100000.0,-100000.0,98675.0,98664.1,98641.9,98697.3
226.0,-100000.0,-17401.6,-100000.0,-100000.0,98650.7,98639.8,98616.9,98671.3
227.0,-100000.0,-17203.7,-100000.0,-100000.0,98956.6,98945.6,98922.9,98977.3
228.0,-100000.0,-17080.4,-100000.0,-100000.0,99016.4,99005.4,98983.1,99038.2
229.0,-100000.0,-17252.0,-100000.0,-100000.0,98722.2,98711.2,98689.1,98744.6
230.0,-100000.0,-17413.6,-100000.0,-100000.0,98599.1,98588.1,98565.3,98619.8
231.0,-100000.0,-17244.3,-100000.0,-100000.0,98897.8,98886.8,98863.9,98918.2
232.0,-100000.0,-17086.8,-100000.0,-100000.0,99022.2,99011.2,98988.8,99043.7
233.0,-100000.0,-17206.4,-100000.0,-100000.0,98774.6,98763.6,98741.4,98797.0
234.0,-100000.0,-17414.6,-100000.0,-100000.0,98564.9,98553.9,98531.2,98585.9
235.0,-100000.0,-17292.2,-100000.0,-100000.0,98831.8,98820.9,98797.9,98852.1
236.0,-100000.0,-17106.6,-100000.0,-100000.0,99014.2,99003.1,98980.6,99035.5
237.0,-100000.0,-17170.9,-100000.0,-100000.0,98828.6,98817.6,98795.4,98851.0
238.0,-100000.0,-17403.0,-100000.0,-100000.0,98553.8,98542.8,98520.3,98575.1
239.0,-100000.0,-17335.7,-100000.0,-100000.0,98762.8,98751.8,98728.9,98783.0
240.0,-100000.0,-17127.2,-100000.0,-100000.0,98995.4,98984.4,98961.9,99016.5
241.0,-100000.0,-17137.2,-100000.0,-100000.0,98875.1,98864.1,98842.0,98897.4
242.0,-100000.0,-17377.8,-100000.0,-100000.0,98559.0,98548.1,98525.7,98580.8
243.0,-100000.0,-17375.2,-100000.0,-100000.0,98691.6,98680.7,98657.7,98711.9
244.0,-100000.0,-17162.3,-100000.0,-100000.0,98964.9,98953.8,98931.2,98985.8
245.0,-100000.0,-17112.8,-100000.0,-100000.0,98914.9,98903.8,98881.6,98936.9
246.0,-100000.0,-17343.8,-100000.0,-100000.0,98585.5,98574.5,98552.2,98607.5
247.0,-100000.0,-17403.4,-100000.0,-100000.0,98625.6,98614.6,98591.7,98645.9
248.0,-100000.0,-17195.4,-100000.0,-100000.0,98925.8,98914.8,98892.1,98946.5
249.0,-100000.0,-17105.5,-100000.0,-100000.0,98943.1,98932.1,98909.8,98965.0
250.0,-100000.0,-17305.0,-100000.0,-100000.0,98626.7,98615.8,98593.5,98649.0
251.0,-100000.0,-17429.7,-100000.0,-100000.0,98567.3,98556.3,98533.3,98587.7
252.0,-100000.0,-17247.6,-100000.0,-100000.0,98873.4,98862.3,98839.5,98893.9
253.0,-100000.0,-17111.3,-100000.0,-100000.0,98955.5,98944.5,98922.1,98977.1
254.0,-100000.0,-17269.5,-100000.0,-100000.0,98675.3,98664.3,98642.1,98697.6
255.0,-100000.0,-17456.2,-100000.0,-100000.0,98520.7,98509.8,98487.0,98541.6
0.0,-100000.0,-17307.7,-100000.0,-100000.0,98811.4,98800.4,98777.4,98831.7
1.0,-100000.0,-17136.2,-100000.0,-100000.0,98956.9,98945.8,98923.3,98978.2
2.0,-100000.0,-17231.0,-100000.0,-100000.0,98731.1,98720.1,98698.0,98753.5
3.0,-100000.0,-17449.6,-100000.0,-100000.0,98497.2,98486.3,98463.7,98518.3
4.0,-100000.0,-17351.5,-100000.0,-100000.0,98744.8,98733.8,98710.8,98765.0
5.0,-100000.0,-17152.4,-100000.0,-100000.0,98945.4,98934.4,98911.9,98966.6
6.0,-100000.0,-17204.6,-100000.0,-100000.0,98780.1,98769.2,98747.0,98802.4
7.0,-100000.0,-17448.4,-100000.0,-100000.0,98487.1,98476.2,98453.6,98508.5
8.0,-100000.0,-17403.0,-100000.0,-100000.0,98672.3,98661.4,98638.3,98692.5
9.0,-100000.0,-17191.1,-100000.0,-100000.0,98920.9,98910.0,98887.3,98941.9
10.0,-100000.0,-17177.6,-100000.0,-100000.0,98825.7,98814.7,98792.5,98847.8
11.0,-100000.0,-17414.5,-100000.0,-100000.0,98503.1,98492.2,98469.8,98524.9
12.0,-100000.0,-17433.8,-100000.0,-100000.0,98602.9,98592.0,98569.0,98623.2
13.0,-100000.0,-17221.2,-100000.0,-100000.0,98886.6,98875.6,98852.9,98907.4
14.0,-100000.0,-17157.8,-100000.0,-100000.0,98861.9,98850.9,98828.7,98883.9
15.0,-100000.0,-17370.6,-100000.0,-100000.0,98536.1,98525.2,98502.9,98558.2
16.0,-100000.0,-17449.2,-100000.0,-100000.0,98540.2,98529.3,98506.3,98560.6
17.0,-100000.0,-17242.2,-100000.0,-100000.0,98844.1,98833.0,98810.3,98864.7
18.0,-100000.0,-17124.9,-100000.0,-100000.0,98886.9,98875.9,98853.6,98908.7
19.0,-100000.0,-17298.7,-100000.0,-100000.0,98581.7,98570.8,98548.6,98604.1
20.0,-100000.0,-17438.4,-100000.0,-100000.0,98489.1,98478.2,98455.3,98509.7
21.0,-100000.0,-17251.1,-100000.0,-100000.0,98792.9,98781.9,98759.0,98813.3
22.0,-100000.0,-17097.5,-100000.0,-100000.0,98897.2,98886.1,98863.8,98918.7
23.0,-100000.0,-17228.0,-100000.0,-100000.0,98633.8,98622.9,98600.7,98656.2
24.0,-100000.0,-17415.5,-100000.0,-100000.0,98451.3,98440.4,98417.7,98472.2
25.0,-100000.0,-17264.3,-100000.0,-100000.0,98732.6,98721.6,98698.6,98752.9
26.0,-100000.0,-17078.7,-100000.0,-100000.0,98898.9,98887.9,98865.4,98920.2
27.0,-100000.0,-17157.9,-100000.0,-100000.0,98694.4,98683.5,98661.3,98716.8
28.0,-100000.0,-17376.6,-100000.0,-100000.0,98437.7,98426.8,98404.1,98458.9
29.0,-100000.0,-17284.1,-100000.0,-100000.0,98668.3,98657.3,98634.3,98688.5
30.0,-100000.0,-17077.5,-100000.0,-100000.0,98886.5,98875.6,98852.9,98907.7
31.0,-100000.0,-17094.7,-100000.0,-100000.0,98745.4,98734.5,98712.3,98767.7
32.0,-100000.0,-17329.7,-100000.0,-100000.0,98438.9,98428.0,98405.5,98460.5
33.0,-100000.0,-17299.3,-100000.0,-100000.0,98597.8,98587.0,98563.9,98618.0
34.0,-100000.0,-17083.4,-100000.0,-100000.0,98861.5,98850.5,98827.8,98882.4
35.0,-100000.0,-17053.3,-100000.0,-100000.0,98790.8,98779.8,98757.6,98812.9
36.0,-100000.0,-17282.6,-100000.0,-100000.0,98463.2,98452.3,98429.9,98485.2
37.0,-100000.0,-17322.3,-100000.0,-100000.0,98532.7,98521.9,98498.8,98553.1
38.0,-100000.0,-17108.2,-100000.0,-100000.0,98825.8,98814.8,98792.0,98846.6
39.0,-100000.0,-17020.0,-100000.0,-100000.0,98823.6,98812.6,98790.3,98845.6
40.0,-100000.0,-17226.8,-100000.0,-100000.0,98502.5,98491.6,98469.3,98524.7
41.0,-100000.0,-17329.6,-100000.0,-100000.0,98473.9,98463.0,98439.9,98494.3
42.0,-100000.0,-17128.4,-100000.0,-100000.0,98779.2,98768.3,98745.4,98799.8
43.0,-100000.0,-16997.0,-100000.0,-100000.0,98842.7,98831.7,98809.3,98864.3
44.0,-100000.0,-17167.2,-100000.0,-100000.0,98552.6,98541.7,98519.5,98575.0
45.0,-100000.0,-17326.1,-100000.0,-100000.0,98427.7,98416.8,98393.9,98448.4
46.0,-100000.0,-17161.8,-100000.0,-100000.0,98725.1,98714.2,98691.2,98745.5
47.0,-100000.0,-16997.2,-100000.0,-100000.0,98852.5,98841.5,98819.0,98874.0
48.0,-100000.0,-17113.3,-100000.0,-100000.0,98609.2,98598.3,98576.1,98631.6
49.0,-100000.0,-17321.9,-100000.0,-100000.0,98398.7,98387.8,98365.0,98419.7
50.0,-100000.0,-17194.9,-100000.0,-100000.0,98663.2,98652.2,98629.2,98683.4
51.0,-100000.0,-16999.0,-100000.0,-100000.0,98846.8,98835.8,98813.2,98868.1
52.0,-100000.0,-17057.4,-100000.0,-100000.0,98663.4,98652.4,98630.2,98685.8
53.0,-100000.0,-17290.7,-100000.0,-100000.0,98386.4,98375.5,98352.9,98407.9
54.0,-100000.0,-17224.0,-100000.0,-100000.0,98593.9,98583.0,98559.9,98614.2
55.0,-100000.0,-17012.0,-100000.0,-100000.0,98829.9,98818.8,98796.2,98851.0
56.0,-100000.0,-17013.4,-100000.0,-100000.0,98713.8,98702.9,98680.6,98736.1
57.0,-100000.0,-17252.8,-100000.0,-100000.0,98398.4,98387.5,98365.0,98420.2
58.0,-100000.0,-17248.5,-100000.0,-100000.0,98527.9,98517.0,98493.9,98548.1
59.0,-100000.0,-17029.2,-100000.0,-100000.0,98804.0,98793.1,98770.3,98825.0
60.0,-100000.0,-16975.3,-100000.0,-100000.0,98757.4,98746.4,98724.1,98779.5
61.0,-100000.0,-17200.8,-100000.0,-100000.0,98428.6,98417.7,98395.3,98450.6
62.0,-100000.0,-17270.4,-100000.0,-100000.0,98464.2,98453.3,98430.3,98484.6
63.0,-100000.0,-17059.6,-100000.0,-100000.0,98765.3,98754.3,98731.5,98786.0
64.0,-100000.0,-16958.3,-100000.0,-100000.0,98785.5,98774.5,98752.1,98807.3
65.0,-100000.0,-17153.8,-100000.0,-100000.0,98471.5,98460.6,98438.2,98493.8
66.0,-100000.0,-17280.7,-100000.0,-100000.0,98409.1,98398.2,98375.2,98429.7
67.0,-100000.0,-17089.9,-100000.0,-100000.0,98716.6,98705.7,98682.7,98737.1
68.0,-100000.0,-16952.9,-100000.0,-100000.0,98802.1,98791.1,98768.6,98823.7
69.0,-100000.0,-17105.0,-100000.0,-100000.0,98523.6,98512.7,98490.5,98546.0
70.0,-100000.0,-17282.6,-100000.0,-100000.0,98366.1,98355.2,98332.3,98386.9
71.0,-100000.0,-17131.0,-100000.0,-100000.0,98656.3,98645.4,98622.4,98676.7
72.0,-100000.0,-16952.2,-100000.0,-100000.0,98805.1,98794.1,98771.6,98826.5
73.0,-100000.0,-17048.7,-100000.0,-100000.0,98580.5,98569.6,98547.4,98602.9
74.0,-100000.0,-17265.6,-100000.0,-100000.0,98343.1,98332.2,98309.5,98364.2
75.0,-100000.0,-17159.8,-100000.0,-100000.0,98590.3,98579.4,98556.3,98610.6
76.0,-100000.0,-16963.2,-100000.0,-100000.0,98794.1,98783.1,98760.5,98815.3
77.0,-100000.0,-17009.0,-100000.0,-100000.0,98632.9,98622.0,98599.7,98655.2
78.0,-100000.0,-17242.6,-100000.0,-100000.0,98338.4,98327.6,98304.9,98359.9
79.0,-100000.0,-17191.7,-100000.0,-100000.0,98521.7,98510.8,98487.7,98541.9
80.0,-100000.0,-16977.2,-100000.0,-100000.0,98773.6,98762.6,98739.9,98794.5
81.0,-100000.0,-16964.4,-100000.0,-100000.0,98681.1,98670.2,98647.9,98703.3
82.0,-100000.0,-17203.7,-100000.0,-100000.0,98356.4,98345.6,98323.1,98378.3
83.0,-100000.0,-17222.4,-100000.0,-100000.0,98453.0,98442.1,98419.0,98473.3
84.0,-100000.0,-17007.2,-100000.0,-100000.0,98739.3,98728.4,98705.6,98760.1
85.0,-100000.0,-16943.1,-100000.0,-100000.0,98716.6,98705.6,98683.3,98738.6
86.0,-100000.0,-17160.4,-100000.0,-100000.0,98389.6,98378.8,98356.4,98411.7
87.0,-100000.0,-17240.5,-100000.0,-100000.0,98391.2,98380.4,98357.2,98411.6
88.0,-100000.0,-17034.3,-100000.0,-100000.0,98695.9,98685.0,98662.0,98716.4
89.0,-100000.0,-16920.5,-100000.0,-100000.0,98739.5,98728.6,98706.1,98761.3
90.0,-100000.0,-17098.7,-100000.0,-100000.0,98436.0,98425.2,98402.8,98458.3
91.0,-100000.0,-17248.1,-100000.0,-100000.0,98340.6,98329.8,98306.7,98361.2
92.0,-100000.0,-17067.1,-100000.0,-100000.0,98644.4,98633.5,98610.5,98664.9
93.0,-100000.0,-16915.5,-100000.0,-100000.0,98751.4,98740.4,98717.9,98772.9
94.0,-100000.0,-17051.3,-100000.0,-100000.0,98490.5,98479.6,98457.3,98512.9
95.0,-100000.0,-17242.4,-100000.0,-100000.0,98305.2,98294.2,98271.4,98326.1
96.0,-100000.0,-17100.8,-100000.0,-100000.0,98584.9,98573.9,98550.9,98605.1
97.0,-100000.0,-16920.3,-100000.0,-100000.0,98751.9,98740.9,98718.3,98773.2
98.0,-100000.0,-17004.6,-100000.0,-100000.0,98548.3,98537.3,98515.1,98570.7
99.0,-100000.0,-17229.0,-100000.0,-100000.0,98289.2,98278.4,98255.6,98310.5
100.0,-100000.0,-17135.5,-100000.0,-100000.0,98517.6,98506.7,98483.6,98537.8
101.0,-100000.0,-16931.2,-100000.0,-100000.0,98739.9,98729.0,98706.4,98761.1
102.0,-100000.0,-16956.9,-100000.0,-100000.0,98602.3,98591.5,98569.2,98624.6
103.0,-100000.0,-17192.6,-100000.0,-100000.0,98294.4,98283.4,98260.8,98315.9
104.0,-100000.0,-17167.9,-100000.0,-100000.0,98449.6,98438.7,98415.6,98469.8
105.0,-100000.0,-16952.4,-100000.0,-100000.0,98714.6,98703.6,98680.9,98735.5
106.0,-100000.0,-16925.1,-100000.0,-100000.0,98646.5,98635.6,98613.3,98668.6
107.0,-100000.0,-17163.3,-100000.0,-100000.0,98317.1,98306.2,98283.7,98339.0
108.0,-100000.0,-17205.6,-100000.0,-100000.0,98384.2,98373.2,98350.2,98404.5
109.0,-100000.0,-16988.5,-100000.0,-100000.0,98680.0,98669.1,98646.2,98700.8
110.0,-100000.0,-16903.6,-100000.0,-100000.0,98681.4,98670.5,98648.0,98703.3
111.0,-100000.0,-17113.2,-100000.0,-100000.0,98359.2,98348.4,98326.0,98381.4
112.0,-100000.0,-17216.4,-100000.0,-100000.0,98325.5,98314.6,98291.5,98345.9
113.0,-100000.0,-17019.8,-100000.0,-100000.0,98633.3,98622.4,98599.4,98653.9
114.0,-100000.0,-16893.6,-100000.0,-100000.0,98699.9,98689.0,98666.5,98721.6
115.0,-100000.0,-17062.9,-100000.0,-100000.0,98409.2,98398.3,98376.0,98431.6
116.0,-100000.0,-17232.5,-100000.0,-100000.0,98280.5,98269.7,98246.8,98301.2
117.0,-100000.0,-17070.0,-100000.0,-100000.0,98577.7,98566.8,98543.8,98598.1
118.0,-100000.0,-16908.2,-100000.0,-100000.0,98708.0,98697.1,98674.5,98729.5
119.0,-100000.0,-17020.5,-100000.0,-100000.0,98465.0,98454.2,98431.9,98487.4
120.0,-100000.0,-17228.0,-100000.0,-100000.0,98249.0,98238.3,98215.4,98270.1
121.0,-100000.0,-17102.1,-100000.0,-100000.0,98513.4,98502.5,98479.4,98533.7
122.0,-100000.0,-16909.9,-100000.0,-100000.0,98699.9,98689.0,98666.3,98721.1
123.0,-100000.0,-16969.2,-100000.0,-100000.0,98519.3,98508.4,98486.1,98541.6
124.0,-100000.0,-17197.9,-100000.0,-100000.0,98241.4,98230.6,98207.9,98262.8
125.0,-100000.0,-17127.8,-100000.0,-100000.0,98446.4,98435.5,98412.3,98466.5
126.0,-100000.0,-16913.4,-100000.0,-100000.0,98682.8,98671.9,98649.1,98703.9
127.0,-100000.0,-16916.1,-100000.0,-100000.0,98568.1,98557.2,98534.9,98590.4
128.0,-100000.0,-17165.0,-100000.0,-100000.0,98250.0,98239.2,98216.6,98271.8
129.0,-100000.0,-17174.7,-100000.0,-100000.0,98375.7,98364.8,98341.7,98395.8
130.0,-100000.0,-16964.6,-100000.0,-100000.0,98653.3,98642.4,98619.6,98674.2
131.0,-100000.0,-16900.3,-100000.0,-100000.0,98610.1,98599.2,98576.8,98632.1
132.0,-100000.0,-17118.1,-100000.0,-100000.0,98281.8,98271.0,98248.5,98303.9
133.0,-100000.0,-17190.9,-100000.0,-100000.0,98312.6,98301.8,98278.6,98333.0
134.0,-100000.0,-16989.4,-100000.0,-100000.0,98613.6,98602.7,98579.7,98634.3
135.0,-100000.0,-16906.2,-100000.0,-100000.0,98635.6,98624.6,98602.1,98657.4
136.0,-100000.0,-17075.6,-100000.0,-100000.0,98322.9,98312.0,98289.7,98345.1
137.0,-100000.0,-17195.1,-100000.0,-100000.0,98255.8,98244.8,98221.8,98276.2
138.0,-100000.0,-17023.8,-100000.0,-100000.0,98559.6,98548.6,98525.6,98580.0
139.0,-100000.0,-16877.9,-100000.0,-100000.0,98647.3,98636.3,98613.8,98668.9
140.0,-100000.0,-17044.1,-100000.0,-100000.0,98372.7,98361.8,98339.4,98395.0
141.0,-100000.0,-17230.5,-100000.0,-100000.0,98213.8,98203.0,98180.0,98234.6
142.0,-100000.0,-17070.2,-100000.0,-100000.0,98502.7,98491.7,98468.7,98522.9
143.0,-100000.0,-16874.4,-100000.0,-100000.0,98653.7,98642.8,98620.0,98675.0
144.0,-100000.0,-16949.1,-100000.0,-100000.0,98435.6,98424.7,98402.3,98457.9
145.0,-100000.0,-17164.5,-100000.0,-100000.0,98200.4,98189.6,98166.6,98221.6
146.0,-100000.0,-17090.0,-100000.0,-100000.0,98441.4,98430.5,98407.3,98461.7
147.0,-100000.0,-16909.2,-100000.0,-100000.0,98643.1,98632.2,98609.4,98664.3
148.0,-100000.0,-16909.6,-100000.0,-100000.0,98490.3,98479.4,98457.0,98512.6
149.0,-100000.0,-17085.3,-100000.0,-100000.0,98204.1,98193.2,98170.5,98225.6
150.0,-100000.0,-17089.6,-100000.0,-100000.0,98374.6,98363.7,98340.5,98394.8
151.0,-100000.0,-16942.2,-100000.0,-100000.0,98615.7,98604.7,98581.9,98636.6
152.0,-100000.0,-16900.8,-100000.0,-100000.0,98532.7,98521.7,98499.3,98554.7
153.0,-100000.0,-17041.7,-100000.0,-100000.0,98231.5,98220.6,98198.0,98253.3
154.0,-100000.0,-17092.4,-100000.0,-100000.0,98320.8,98309.9,98286.8,98341.1
155.0,-100000.0,-16966.2,-100000.0,-100000.0,98588.3,98577.3,98554.5,98609.1
156.0,-100000.0,-16850.4,-100000.0,-100000.0,98574.7,98563.7,98541.3,98596.5
157.0,-100000.0,-16850.0,-100000.0,-100000.0,98291.6,98280.6,98258.2,98313.5
158.0,-100000.0,-16927.0,-100000.0,-100000.0,98291.9,98281.0,98257.9,98312.4
159.0,-100000.0,-16892.9,-100000.0,-100000.0,98557.6,98546.6,98523.7,98578.3
160.0,-100000.0,-16772.5,-100000.0,-100000.0,98603.9,98592.9,98570.3,98625.5
161.0,-100000.0,-16706.5,-100000.0,-100000.0,98355.7,98344.8,98322.3,98377.8
162.0,-100000.0,-16788.8,-100000.0,-100000.0,98272.5,98261.7,98238.6,98293.3
163.0,-100000.0,-16865.5,-100000.0,-100000.0,98520.6,98509.7,98486.7,98541.2
164.0,-100000.0,-16784.4,-100000.0,-100000.0,98615.2,98604.2,98581.6,98636.7
165.0,-100000.0,-16685.8,-100000.0,-100000.0,98406.6,98395.7,98373.3,98428.8
166.0,-100000.0,-16738.1,-100000.0,-100000.0,98251.7,98240.9,98218.0,98272.8
167.0,-100000.0,-16852.2,-100000.0,-100000.0,98471.8,98460.9,98437.8,98492.3
168.0,-100000.0,-16786.1,-100000.0,-100000.0,98613.6,98602.6,98580.0,98634.9
169.0,-100000.0,-16696.8,-100000.0,-100000.0,98453.1,98442.2,98419.8,98475.3
170.0,-100000.0,-16738.1,-100000.0,-100000.0,98240.2,98229.3,98206.5,98261.5
171.0,-100000.0,-16900.2,-100000.0,-100000.0,98413.4,98402.5,98379.4,98433.8
172.0,-100000.0,-16870.5,-100000.0,-100000.0,98593.8,98582.9,98560.1,98614.9
173.0,-100000.0,-16747.2,-100000.0,-100000.0,98489.4,98478.5,98456.0,98511.4
174.0,-100000.0,-16734.6,-100000.0,-100000.0,98242.0,98231.2,98208.4,98263.5
175.0,-100000.0,-16908.0,-100000.0,-100000.0,98356.0,98345.1,98322.0,98376.4
176.0,-100000.0,-16925.9,-100000.0,-100000.0,98567.5,98556.6,98533.7,98588.5
177.0,-100000.0,-16797.7,-100000.0,-100000.0,98519.6,98508.6,98486.2,98541.5
178.0,-100000.0,-16740.9,-100000.0,-100000.0,98258.3,98247.5,98224.9,98280.1
179.0,-100000.0,-16901.5,-100000.0,-100000.0,98300.6,98289.7,98266.6,98321.1
180.0,-100000.0,-16970.0,-100000.0,-100000.0,98532.6,98521.7,98498.8,98553.4
181.0,-100000.0,-16858.6,-100000.0,-100000.0,98539.4,98528.5,98505.9,98561.1
182.0,-100000.0,-16767.5,-100000.0,-100000.0,98286.7,98275.9,98253.3,98308.7
183.0,-100000.0,-16897.0,-100000.0,-100000.0,98252.4,98241.6,98218.5,98273.1
184.0,-100000.0,-17003.2,-100000.0,-100000.0,98492.0,98481.1,98458.2,98512.7
185.0,-100000.0,-16904.8,-100000.0,-100000.0,98550.3,98539.4,98516.7,98571.9
186.0,-100000.0,-16805.7,-100000.0,-100000.0,98321.9,98311.1,98288.6,98344.1
187.0,-100000.0,-16898.0,-100000.0,-100000.0,98211.7,98200.9,98177.9,98232.6
188.0,-100000.0,-17048.1,-100000.0,-100000.0,98438.4,98427.5,98404.5,98459.0
189.0,-100000.0,-16964.9,-100000.0,-100000.0,98546.3,98535.3,98512.7,98567.7
190.0,-100000.0,-16849.6,-100000.0,-100000.0,98358.9,98348.0,98325.6,98381.1
191.0,-100000.0,-16917.3,-100000.0,-100000.0,98183.3,98172.5,98149.6,98204.5
192.0,-100000.0,-17087.3,-100000.0,-100000.0,98382.0,98371.1,98348.0,98402.5
193.0,-100000.0,-17048.0,-100000.0,-100000.0,98533.9,98523.0,98500.2,98555.1
194.0,-100000.0,-16936.2,-100000.0,-100000.0,98395.9,98385.0,98362.6,98418.1
195.0,-100000.0,-16954.1,-100000.0,-100000.0,98172.1,98161.2,98138.5,98193.5
196.0,-100000.0,-17160.9,-100000.0,-100000.0,98322.3,98311.4,98288.2,98342.7
197.0,-100000.0,-17173.9,-100000.0,-100000.0,98509.9,98499.0,98476.2,98531.0
198.0,-100000.0,-17061.2,-100000.0,-100000.0,98424.9,98414.1,98391.6,98447.0
199.0,-100000.0,-17031.0,-100000.0,-100000.0,98171.7,98160.9,98138.2,98193.5
200.0,-100000.0,-17216.7,-100000.0,-100000.0,98260.7,98249.9,98226.7,98281.2
201.0,-100000.0,-17268.1,-100000.0,-100000.0,98478.5,98467.6,98444.7,98499.5
202.0,-100000.0,-17148.9,-100000.0,-100000.0,98449.8,98438.8,98416.3,98471.6
203.0,-100000.0,-17088.2,-100000.0,-100000.0,98190.4,98179.6,98157.0,98212.3
204.0,-100000.0,-17268.7,-100000.0,-100000.0,98204.4,98193.6,98170.5,98225.0
205.0,-100000.0,-17392.7,-100000.0,-100000.0,98437.6,98426.7,98403.7,98458.4
206.0,-100000.0,-17321.1,-100000.0,-100000.0,98462.7,98451.8,98429.2,98484.4
207.0,-100000.0,-17236.7,-100000.0,-100000.0,98217.5,98206.7,98184.2,98239.6
208.0,-100000.0,-17350.2,-100000.0,-100000.0,98154.3,98143.4,98120.5,98175.0
209.0,-100000.0,-17511.3,-100000.0,-100000.0,98388.2,98377.3,98354.3,98408.8
210.0,-100000.0,-17456.2,-100000.0,-100000.0,98464.0,98453.0,98430.5,98485.5
211.0,-100000.0,-17363.1,-100000.0,-100000.0,98249.0,98238.2,98215.8,98271.2
212.0,-100000.0,-17458.7,-100000.0,-100000.0,98115.1,98104.3,98081.4,98136.1
213.0,-100000.0,-17670.0,-100000.0,-100000.0,98334.7,98323.9,98300.8,98355.3
214.0,-100000.0,-17635.9,-100000.0,-100000.0,98458.9,98448.0,98425.3,98480.3
215.0,-100000.0,-17481.5,-100000.0,-100000.0,98290.5,98279.7,98257.3,98312.7
216.0,-100000.0,-17490.3,-100000.0,-100000.0,98099.7,98088.9,98066.1,98121.0
217.0,-100000.0,-17714.4,-100000.0,-100000.0,98282.6,98271.7,98248.7,98303.1
218.0,-100000.0,-17694.2,-100000.0,-100000.0,98447.3,98436.3,98413.6,98468.5
219.0,-100000.0,-17534.2,-100000.0,-100000.0,98327.8,98316.9,98294.5,98349.9
220.0,-100000.0,-17502.8,-100000.0,-100000.0,98092.1,98081.3,98058.6,98113.7
221.0,-100000.0,-17731.0,-100000.0,-100000.0,98222.2,98211.4,98188.3,98242.7
222.0,-100000.0,-17775.9,-100000.0,-100000.0,98421.8,98411.0,98388.1,98442.9
223.0,-100000.0,-17627.6,-100000.0,-100000.0,98358.2,98347.4,98324.8,98380.2
224.0,-100000.0,-17506.8,-100000.0,-100000.0,98103.2,98092.3,98069.7,98125.0
225.0,-100000.0,-17694.2,-100000.0,-100000.0,98167.2,98156.3,98133.2,98187.7
226.0,-100000.0,-17792.6,-100000.0,-100000.0,98391.8,98380.8,98358.0,98412.7
227.0,-100000.0,-17669.1,-100000.0,-100000.0,98382.8,98371.9,98349.4,98404.7
228.0,-100000.0,-17548.8,-100000.0,-100000.0,98127.2,98116.4,98093.8,98149.2
229.0,-100000.0,-17719.1,-100000.0,-100000.0,98114.2,98103.3,98080.2,98134.8
230.0,-100000.0,-17905.0,-100000.0,-100000.0,98348.6,98337.7,98314.7,98369.3
231.0,-100000.0,-17823.0,-100000.0,-100000.0,98392.1,98381.1,98358.5,98413.7
232.0,-100000.0,-17674.3,-100000.0,-100000.0,98157.2,98146.3,98123.9,98179.3
233.0,-100000.0,-17801.6,-100000.0,-100000.0,98068.5,98057.7,98034.7,98089.4
234.0,-100000.0,-18049.1,-100000.0,-100000.0,98297.1,98286.2,98263.2,98317.8
235.0,-100000.0,-18012.3,-100000.0,-100000.0,98390.5,98379.6,98356.9,98411.9
236.0,-100000.0,-17871.1,-100000.0,-100000.0,98190.3,98179.4,98157.1,98212.5
237.0,-100000.0,-17923.0,-100000.0,-100000.0,98034.2,98023.4,98000.5,98055.2
238.0,-100000.0,-18162.3,-100000.0,-100000.0,98242.3,98231.4,98208.3,98262.8
239.0,-100000.0,-18164.4,-100000.0,-100000.0,98379.2,98368.4,98345.6,98400.5
240.0,-100000.0,-17996.6,-100000.0,-100000.0,98226.4,98215.5,98193.1,98248.5
241.0,-100000.0,-17957.6,-100000.0,-100000.0,98020.1,98009.2,97986.4,98041.3
242.0,-100000.0,-18178.3,-100000.0,-100000.0,98186.7,98175.8,98152.7,98207.1
243.0,-100000.0,-18183.5,-100000.0,-100000.0,98365.5,98354.7,98331.8,98386.7
244.0,-100000.0,-18023.8,-100000.0,-100000.0,98266.7,98255.9,98233.4,98288.8
245.0,-100000.0,-17935.0,-100000.0,-100000.0,98022.7,98011.9,97989.2,98044.4
246.0,-100000.0,-18129.0,-100000.0,-100000.0,98132.0,98121.1,98097.9,98152.5
247.0,-100000.0,-18188.1,-100000.0,-100000.0,98341.2,98330.3,98307.4,98362.1
248.0,-100000.0,-18047.5,-100000.0,-100000.0,98296.0,98285.2,98262.6,98318.0
249.0,-100000.0,-17935.0,-100000.0,-100000.0,98040.5,98029.7,98007.0,98062.3
250.0,-100000.0,-18086.5,-100000.0,-100000.0,98081.2,98070.4,98047.2,98101.8
251.0,-100000.0,-18162.7,-100000.0,-100000.0,98312.3,98301.4,98278.4,98333.1
252.0,-100000.0,-18036.1,-100000.0,-100000.0,98320.7,98309.9,98287.2,98342.5
253.0,-100000.0,-17909.6,-100000.0,-100000.0,98072.0,98061.2,98038.6,98094.1
254.0,-100000.0,-18010.7,-100000.0,-100000.0,98035.7,98024.9,98001.8,98056.4
255.0,-100000.0,-18115.8,-100000.0,-100000.0,98271.7,98260.8,98237.8,98292.4
0.0,-100000.0,-18008.2,-100000.0,-100000.0,98332.3,98321.4,98298.8,98354.0
1.0,-100000.0,-17857.2,-100000.0,-100000.0,98111.0,98100.2,98077.7,98133.2
2.0,-100000.0,-17911.4,-100000.0,-100000.0,98001.0,97990.3,97967.3,98022.0
3.0,-100000.0,-18056.4,-100000.0,-100000.0,98226.8,98215.9,98192.9,98247.4
4.0,-100000.0,-17977.7,-100000.0,-100000.0,98337.3,98326.3,98303.6,98358.6
5.0,-100000.0,-17823.1,-100000.0,-100000.0,98154.1,98143.2,98120.7,98176.2
6.0,-100000.0,-17848.5,-100000.0,-100000.0,97978.4,97967.6,97944.7,97999.5
7.0,-100000.0,-17999.9,-100000.0,-100000.0,98176.1,98165.2,98142.1,98196.5
8.0,-100000.0,-17956.4,-100000.0,-100000.0,98330.5,98319.6,98296.8,98351.7
9.0,-100000.0,-17803.0,-100000.0,-100000.0,98196.7,98185.9,98163.4,98218.8
10.0,-100000.0,-17765.8,-100000.0,-100000.0,97976.8,97966.0,97943.1,97998.2
11.0,-100000.0,-17923.0,-100000.0,-100000.0,98128.1,98117.3,98094.1,98148.6
12.0,-100000.0,-17916.4,-100000.0,-100000.0,98319.9,98309.1,98286.2,98341.1
13.0,-100000.0,-17761.1,-100000.0,-100000.0,98239.1,98228.2,98205.7,98261.2
14.0,-100000.0,-17664.2,-100000.0,-100000.0,97990.1,97979.3,97956.6,98011.7
15.0,-100000.0,-17812.6,-100000.0,-100000.0,98077.8,98067.0,98043.9,98098.3
16.0,-100000.0,-17847.8,-100000.0,-100000.0,98296.6,98285.7,98262.8,98317.5
17.0,-100000.0,-17685.3,-100000.0,-100000.0,98271.9,98261.1,98238.5,98293.8
18.0,-100000.0,-17535.9,-100000.0,-100000.0,98018.0,98007.2,97984.6,98039.9
19.0,-100000.0,-17662.2,-100000.0,-100000.0,98033.6,98022.8,97999.6,98054.2
20.0,-100000.0,-17763.3,-100000.0,-100000.0,98267.6,98256.8,98233.7,98288.4
21.0,-100000.0,-17627.8,-100000.0,-100000.0,98296.6,98285.9,98263.1,98318.3
22.0,-100000.0,-17430.0,-100000.0,-100000.0,98058.1,98047.4,98024.7,98080.2
23.0,-100000.0,-17523.3,-100000.0,-100000.0,97997.7,97986.9,97963.8,98018.4
24.0,-100000.0,-17702.8,-100000.0,-100000.0,98231.2,98220.3,98197.2,98251.8
25.0,-100000.0,-17606.9,-100000.0,-100000.0,98309.8,98298.9,98276.2,98331.3
26.0,-100000.0,-17398.9,-100000.0,-100000.0,98101.8,98091.0,98068.5,98124.0
27.0,-100000.0,-17417.2,-100000.0,-100000.0,97969.6,97958.9,97935.8,97990.6
28.0,-100000.0,-17638.4,-100000.0,-100000.0,98185.1,98174.3,98151.1,98205.6
29.0,-100000.0,-17595.1,-100000.0,-100000.0,98309.8,98298.8,98276.0,98331.1
30.0,-100000.0,-17385.4,-100000.0,-100000.0,98143.9,98133.1,98110.5,98166.1
31.0,-100000.0,-17332.0,-100000.0,-100000.0,97953.6,97942.8,97919.8,97974.8
32.0,-100000.0,-17561.1,-100000.0,-100000.0,98134.8,98123.9,98100.7,98155.2
33.0,-100000.0,-17580.4,-100000.0,-100000.0,98300.5,98289.7,98266.8,98321.7
34.0,-100000.0,-17378.2,-100000.0,-100000.0,98185.6,98174.8,98152.3,98207.8
35.0,-100000.0,-17250.4,-100000.0,-100000.0,97956.4,97945.6,97922.8,97978.0
36.0,-100000.0,-17457.5,-100000.0,-100000.0,98086.5,98075.7,98052.5,98107.0
37.0,-100000.0,-17521.5,-100000.0,-100000.0,98285.4,98274.5,98251.5,98306.4
38.0,-100000.0,-17335.7,-100000.0,-100000.0,98225.1,98214.3,98191.7,98247.0
39.0,-100000.0,-17171.0,-100000.0,-100000.0,97973.3,97962.5,97939.8,97995.1
40.0,-100000.0,-17362.7,-100000.0,-100000.0,98033.3,98022.5,97999.3,98053.8
41.0,-100000.0,-17484.6,-100000.0,-100000.0,98256.1,98245.2,98222.3,98277.0
42.0,-100000.0,-17340.4,-100000.0,-100000.0,98251.0,98240.2,98217.6,98272.9
43.0,-100000.0,-17140.9,-100000.0,-100000.0,98001.2,97990.4,97967.7,98023.2
44.0,-100000.0,-17267.2,-100000.0,-100000.0,97988.9,97978.1,97954.9,98009.5
45.0,-100000.0,-17436.8,-100000.0,-100000.0,98223.6,98212.7,98189.6,98244.3
46.0,-100000.0,-17329.6,-100000.0,-100000.0,98270.4,98259.4,98236.8,98292.0
47.0,-100000.0,-17121.8,-100000.0,-100000.0,98042.5,98031.6,98009.0,98064.6
48.0,-100000.0,-17187.8,-100000.0,-100000.0,97957.9,97947.1,97924.0,97978.8
49.0,-100000.0,-17388.5,-100000.0,-100000.0,98188.2,98177.4,98154.2,98208.8
50.0,-100000.0,-17317.1,-100000.0,-100000.0,98282.3,98271.5,98248.7,98303.8
51.0,-100000.0,-17105.7,-100000.0,-100000.0,98088.3,98077.5,98055.0,98110.5
52.0,-100000.0,-17107.5,-100000.0,-100000.0,97936.4,97925.6,97902.6,97957.5
53.0,-100000.0,-17313.6,-100000.0,-100000.0,98143.6,98132.7,98109.6,98164.1
54.0,-100000.0,-17266.3,-100000.0,-100000.0,98283.6,98272.8,98249.9,98305.0
55.0,-100000.0,-17082.7,-100000.0,-100000.0,98136.4,98125.5,98103.0,98158.5
56.0,-100000.0,-17022.2,-100000.0,-100000.0,97930.6,97919.8,97897.0,97952.0
57.0,-100000.0,-17216.8,-100000.0,-100000.0,98096.3,98085.5,98062.3,98116.8
58.0,-100000.0,-17226.1,-100000.0,-100000.0,98274.0,98263.1,98240.2,98295.1
59.0,-100000.0,-17056.1,-100000.0,-100000.0,98177.4,98166.6,98144.1,98199.6
60.0,-100000.0,-16939.1,-100000.0,-100000.0,97935.5,97924.7,97901.9,97957.1
61.0,-100000.0,-17136.1,-100000.0,-100000.0,98042.3,98031.4,98008.2,98062.8
62.0,-100000.0,-17208.5,-100000.0,-100000.0,98251.4,98240.5,98217.5,98272.3
63.0,-100000.0,-17058.4,-100000.0,-100000.0,98209.7,98198.9,98176.3,98231.6
64.0,-100000.0,-16919.6,-100000.0,-100000.0,97957.1,97946.4,97923.6,97979.0
65.0,-100000.0,-17070.8,-100000.0,-100000.0,97994.9,97984.2,97960.9,98015.5
66.0,-100000.0,-17179.2,-100000.0,-100000.0,98222.4,98211.5,98188.5,98243.2
67.0,-100000.0,-17062.7,-100000.0,-100000.0,98232.8,98221.9,98199.2,98254.5
68.0,-100000.0,-16893.3,-100000.0,-100000.0,97986.9,97976.1,97953.5,98009.0
69.0,-100000.0,-16997.0,-100000.0,-100000.0,97948.3,97937.5,97914.3,97969.0
70.0,-100000.0,-17154.5,-100000.0,-100000.0,98183.6,98172.7,98149.6,98204.3
71.0,-100000.0,-17054.0,-100000.0,-100000.0,98245.5,98234.7,98211.9,98267.2
72.0,-100000.0,-16870.2,-100000.0,-100000.0,98024.7,98014.0,97991.3,98046.9
73.0,-100000.0,-16913.8,-100000.0,-100000.0,97914.9,97904.2,97881.0,97935.9
74.0,-100000.0,-17098.5,-100000.0,-100000.0,98139.6,98128.8,98105.6,98160.3
75.0,-100000.0,-17029.9,-100000.0,-100000.0,98249.2,98238.3,98215.5,98270.6
76.0,-100000.0,-16844.6,-100000.0,-100000.0,98067.0,98056.2,98033.6,98089.2
77.0,-100000.0,-16830.0,-100000.0,-100000.0,97892.3,97881.6,97858.6,97913.6
78.0,-100000.0,-17016.3,-100000.0,-100000.0,98088.6,98077.8,98054.6,98109.2
79.0,-100000.0,-16993.3,-100000.0,-100000.0,98243.1,98232.3,98209.3,98264.4
80.0,-100000.0,-16836.9,-100000.0,-100000.0,98110.3,98099.5,98076.9,98132.5
81.0,-100000.0,-16786.6,-100000.0,-100000.0,97888.2,97877.4,97854.5,97909.7
82.0,-100000.0,-16960.8,-100000.0,-100000.0,98035.8,98025.0,98001.8,98056.3
83.0,-100000.0,-16951.1,-100000.0,-100000.0,98226.7,98215.9,98192.9,98247.8
84.0,-100000.0,-16735.9,-100000.0,-100000.0,98150.2,98139.5,98116.8,98172.3
85.0,-100000.0,-16471.2,-100000.0,-100000.0,97906.1,97895.4,97872.5,97927.9
86.0,-100000.0,-16578.7,-100000.0,-100000.0,97992.2,97981.4,97958.2,98012.8
87.0,-100000.0,-16772.9,-100000.0,-100000.0,98206.4,98195.6,98172.5,98227.4
88.0,-100000.0,-16619.1,-100000.0,-100000.0,98181.6,98170.8,98148.1,98203.6
89.0,-100000.0,-16360.7,-100000.0,-100000.0,97929.3,97918.6,97895.8,97951.3
90.0,-100000.0,-16517.4,-100000.0,-100000.0,97941.1,97930.4,97907.2,97961.9
91.0,-100000.0,-16765.7,-100000.0,-100000.0,98170.8,98160.0,98136.9,98191.7
92.0,-100000.0,-16684.9,-100000.0,-100000.0,98197.1,98186.4,98163.6,98219.0
93.0,-100000.0,-16433.9,-100000.0,-100000.0,97956.6,97945.9,97923.2,97978.8
94.0,-100000.0,-16541.8,-100000.0,-100000.0,97892.3,97881.6,97858.3,97913.1
95.0,-100000.0,-16844.4,-100000.0,-100000.0,98123.7,98113.0,98089.8,98144.5
96.0,-100000.0,-16804.5,-100000.0,-100000.0,98200.3,98189.6,98166.7,98221.9
97.0,-100000.0,-16545.6,-100000.0,-100000.0,97991.6,97980.9,97958.2,98013.8
98.0,-100000.0,-16531.2,-100000.0,-100000.0,97856.5,97845.8,97822.7,97877.6
99.0,-100000.0,-16817.1,-100000.0,-100000.0,98069.8,98059.1,98035.9,98090.6
100.0,-100000.0,-16806.4,-100000.0,-100000.0,98192.8,98182.0,98159.1,98214.2
101.0,-100000.0,-16563.1,-100000.0,-100000.0,98027.2,98016.5,97993.8,98049.4
102.0,-100000.0,-16493.5,-100000.0,-100000.0,97833.3,97822.6,97799.6,97854.6
103.0,-100000.0,-16820.5,-100000.0,-100000.0,98009.6,97998.8,97975.5,98030.1
104.0,-100000.0,-16900.4,-100000.0,-100000.0,98174.9,98164.0,98141.1,98196.1
105.0,-100000.0,-16689.5,-100000.0,-100000.0,98059.8,98049.1,98026.4,98082.0
106.0,-100000.0,-16534.2,-100000.0,-100000.0,97825.3,97814.7,97791.7,97847.0
107.0,-100000.0,-16798.5,-100000.0,-100000.0,97952.0,97941.3,97918.0,97972.6
108.0,-100000.0,-16948.8,-100000.0,-100000.0,98150.1,98139.3,98116.3,98171.1
109.0,-100000.0,-16807.9,-100000.0,-100000.0,98086.4,98075.7,98052.9,98108.4
110.0,-100000.0,-16618.2,-100000.0,-100000.0,97831.8,97821.1,97798.3,97853.7
111.0,-100000.0,-16842.7,-100000.0,-100000.0,97891.2,97880.5,97857.2,97911.8
112.0,-100000.0,-17046.9,-100000.0,-100000.0,98112.4,98101.6,98078.6,98133.4
113.0,-100000.0,-16928.4,-100000.0,-100000.0,98103.0,98092.2,98069.4,98124.9
114.0,-100000.0,-16701.0,-100000.0,-100000.0,97849.5,97838.8,97816.1,97871.6
115.0,-100000.0,-16837.8,-100000.0,-100000.0,97835.4,97824.7,97801.5,97856.2
116.0,-100000.0,-17075.3,-100000.0,-100000.0,98069.5,98058.7,98035.6,98090.4
117.0,-100000.0,-16989.9,-100000.0,-100000.0,98112.7,98101.9,98079.2,98134.5
118.0,-100000.0,-16721.2,-100000.0,-100000.0,97880.4,97869.6,97846.9,97902.5
119.0,-100000.0,-16771.8,-100000.0,-100000.0,97790.7,97779.9,97756.7,97811.5
120.0,-100000.0,-17066.4,-100000.0,-100000.0,98018.9,98008.1,97984.9,98039.6
121.0,-100000.0,-17021.2,-100000.0,-100000.0,98112.9,98102.0,98079.2,98134.4
122.0,-100000.0,-16723.4,-100000.0,-100000.0,97918.0,97907.2,97884.6,97940.3
123.0,-100000.0,-16651.2,-100000.0,-100000.0,97761.4,97750.7,97727.6,97782.6
124.0,-100000.0,-16996.5,-100000.0,-100000.0,97965.1,97954.4,97931.1,97985.8
125.0,-100000.0,-17035.8,-100000.0,-100000.0,98104.1,98093.4,98070.5,98125.5
126.0,-100000.0,-16733.7,-100000.0,-100000.0,97956.3,97945.6,97922.9,97978.5
127.0,-100000.0,-16534.8,-100000.0,-100000.0,97748.8,97738.1,97715.1,97770.2
128.0,-100000.0,-16909.7,-100000.0,-100000.0,97909.0,97898.2,97875.0,97929.5
129.0,-100000.0,-17068.9,-100000.0,-100000.0,98083.0,98072.3,98049.3,98104.2
130.0,-100000.0,-16800.7,-100000.0,-100000.0,97986.7,97976.0,97953.3,98008.9
131.0,-100000.0,-16498.9,-100000.0,-100000.0,97747.1,97736.5,97713.5,97768.9
132.0,-100000.0,-16858.5,-100000.0,-100000.0,97849.6,97838.9,97815.5,97870.2
133.0,-100000.0,-17132.9,-100000.0,-100000.0,98054.7,98043.9,98020.8,98075.8
134.0,-100000.0,-16906.2,-100000.0,-100000.0,98010.8,98000.0,97977.4,98032.8
135.0,-100000.0,-16543.4,-100000.0,-100000.0,97751.3,97740.5,97717.8,97773.2
136.0,-100000.0,-16874.4,-100000.0,-100000.0,97771.1,97760.3,97737.1,97791.7
137.0,-100000.0,-17259.3,-100000.0,-100000.0,97991.9,97981.2,97958.0,98012.8
138.0,-100000.0,-17102.1,-100000.0,-100000.0,98003.3,97992.6,97969.7,98025.1
139.0,-100000.0,-16668.0,-100000.0,-100000.0,97755.1,97744.3,97721.6,97777.1
140.0,-100000.0,-16798.6,-100000.0,-100000.0,97708.9,97698.2,97674.9,97729.7
141.0,-100000.0,-17250.4,-100000.0,-100000.0,97938.0,97927.2,97904.0,97958.7
142.0,-100000.0,-17175.0,-100000.0,-100000.0,97998.6,97987.8,97964.9,98020.2
143.0,-100000.0,-16687.7,-100000.0,-100000.0,97778.7,97768.0,97745.3,97800.9
144.0,-100000.0,-16607.3,-100000.0,-100000.0,97665.3,97654.6,97631.4,97686.2
145.0,-100000.0,-17104.2,-100000.0,-100000.0,97885.4,97874.6,97851.3,97906.0
146.0,-100000.0,-17134.9,-100000.0,-100000.0,97995.4,97984.6,97961.6,98016.8
147.0,-100000.0,-16703.7,-100000.0,-100000.0,97813.8,97803.0,97780.3,97835.9
148.0,-100000.0,-16500.1,-100000.0,-100000.0,97635.1,97624.3,97601.2,97656.2
149.0,-100000.0,-17000.7,-100000.0,-100000.0,97827.4,97816.6,97793.2,97847.9
150.0,-100000.0,-17149.3,-100000.0,-100000.0,97979.3,97968.5,97945.4,98000.6
151.0,-100000.0,-16813.7,-100000.0,-100000.0,97843.7,97832.9,97810.2,97865.8
152.0,-100000.0,-16533.4,-100000.0,-100000.0,97615.2,97604.5,97581.4,97636.6
153.0,-100000.0,-16948.7,-100000.0,-100000.0,97762.0,97751.2,97727.8,97782.4
154.0,-100000.0,-17186.2,-100000.0,-100000.0,97953.0,97942.2,97919.1,97974.1
155.0,-100000.0,-16939.6,-100000.0,-100000.0,97869.4,97858.7,97836.0,97891.6
156.0,-100000.0,-16586.8,-100000.0,-100000.0,97611.7,97601.1,97578.1,97633.6
157.0,-100000.0,-16899.5,-100000.0,-100000.0,97697.6,97687.0,97663.5,97718.2
158.0,-100000.0,-17210.5,-100000.0,-100000.0,97919.4,97908.7,97885.5,97940.4
159.0,-100000.0,-17018.1,-100000.0,-100000.0,97890.9,97880.1,97857.3,97912.8
160.0,-100000.0,-16626.9,-100000.0,-100000.0,97624.7,97614.0,97591.1,97646.6
161.0,-100000.0,-16807.1,-100000.0,-100000.0,97637.4,97626.7,97603.3,97658.0
162.0,-100000.0,-17169.5,-100000.0,-100000.0,97879.9,97869.1,97845.9,97900.7
163.0,-100000.0,-17067.5,-100000.0,-100000.0,97907.0,97896.2,97873.2,97928.7
164.0,-100000.0,-16697.6,-100000.0,-100000.0,97651.9,97641.2,97618.4,97674.0
165.0,-100000.0,-16754.8,-100000.0,-100000.0,97583.6,97572.9,97549.5,97604.4
166.0,-100000.0,-17131.5,-100000.0,-100000.0,97830.9,97820.2,97796.9,97851.6
167.0,-100000.0,-17102.8,-100000.0,-100000.0,97910.0,97899.2,97876.2,97931.4
168.0,-100000.0,-16787.1,-100000.0,-100000.0,97684.2,97673.5,97650.8,97706.4
169.0,-100000.0,-16743.5,-100000.0,-100000.0,97539.3,97528.7,97505.4,97560.3
170.0,-100000.0,-17113.7,-100000.0,-100000.0,97771.7,97761.0,97737.6,97792.2
171.0,-100000.0,-17143.9,-100000.0,-100000.0,97902.0,97891.3,97868.3,97923.4
172.0,-100000.0,-16854.6,-100000.0,-100000.0,97720.3,97709.7,97686.9,97742.6
173.0,-100000.0,-16728.2,-100000.0,-100000.0,97510.6,97500.0,97476.8,97531.8
174.0,-100000.0,-17051.9,-100000.0,-100000.0,97707.7,97697.0,97673.6,97728.2
175.0,-100000.0,-17138.9,-100000.0,-100000.0,97886.2,97875.5,97852.4,97907.4
176.0,-100000.0,-16920.4,-100000.0,-100000.0,97756.4,97745.7,97722.9,97778.6
177.0,-100000.0,-16734.0,-100000.0,-100000.0,97499.5,97488.9,97465.8,97521.1
178.0,-100000.0,-17009.3,-100000.0,-100000.0,97641.9,97631.1,97607.7,97662.2
179.0,-100000.0,-17170.3,-100000.0,-100000.0,97858.7,97847.9,97824.8,97879.7
180.0,-100000.0,-17003.8,-100000.0,-100000.0,97785.8,97775.1,97752.3,97807.9
181.0,-100000.0,-16781.7,-100000.0,-100000.0,97500.7,97490.0,97467.1,97522.6
182.0,-100000.0,-16991.9,-100000.0,-100000.0,97568.9,97558.3,97534.8,97589.4
183.0,-100000.0,-17175.4,-100000.0,-100000.0,97815.9,97805.2,97781.9,97836.8
184.0,-100000.0,-17018.5,-100000.0,-100000.0,97802.9,97792.2,97769.3,97824.8
185.0,-100000.0,-16785.5,-100000.0,-100000.0,97512.0,97501.3,97478.5,97534.1
186.0,-100000.0,-16953.7,-100000.0,-100000.0,97482.5,97471.8,97448.3,97503.1
187.0,-100000.0,-17179.8,-100000.0,-100000.0,97739.5,97728.8,97705.4,97760.2
188.0,-100000.0,-17022.4,-100000.0,-100000.0,97790.0,97779.3,97756.3,97811.7
189.0,-100000.0,-16666.2,-100000.0,-100000.0,97536.5,97525.9,97503.0,97558.7
190.0,-100000.0,-16629.3,-100000.0,-100000.0,97443.4,97432.7,97409.4,97464.1
191.0,-100000.0,-16869.4,-100000.0,-100000.0,97701.8,97691.1,97667.6,97722.3
192.0,-100000.0,-16804.9,-100000.0,-100000.0,97804.6,97793.9,97770.8,97826.1
193.0,-100000.0,-16530.8,-100000.0,-100000.0,97586.7,97576.0,97553.2,97608.9
194.0,-100000.0,-16472.7,-100000.0,-100000.0,97413.8,97403.1,97379.8,97434.8
195.0,-100000.0,-16737.3,-100000.0,-100000.0,97647.1,97636.4,97612.9,97667.5
196.0,-100000.0,-16763.1,-100000.0,-100000.0,97800.3,97789.5,97766.4,97821.6
197.0,-100000.0,-16597.3,-100000.0,-100000.0,97627.4,97616.7,97593.9,97649.7
198.0,-100000.0,-16540.6,-100000.0,-100000.0,97389.7,97379.0,97355.9,97411.0
199.0,-100000.0,-16762.4,-100000.0,-100000.0,97582.3,97571.6,97548.1,97602.6
200.0,-100000.0,-16827.6,-100000.0,-100000.0,97781.9,97771.2,97748.0,97803.0
201.0,-100000.0,-16683.7,-100000.0,-100000.0,97665.1,97654.5,97631.6,97687.3
202.0,-100000.0,-16578.0,-100000.0,-100000.0,97384.8,97374.1,97351.0,97406.4
203.0,-100000.0,-16767.7,-100000.0,-100000.0,97511.2,97500.5,97476.9,97531.5
204.0,-100000.0,-16841.9,-100000.0,-100000.0,97751.9,97741.1,97717.9,97772.8
205.0,-100000.0,-16702.9,-100000.0,-100000.0,97699.0,97688.3,97665.5,97721.1
206.0,-100000.0,-16570.1,-100000.0,-100000.0,97401.4,97390.7,97367.7,97423.3
207.0,-100000.0,-16757.0,-100000.0,-100000.0,97443.1,97432.4,97408.9,97463.5
208.0,-100000.0,-16898.0,-100000.0,-100000.0,97707.6,97696.9,97673.6,97728.5
209.0,-100000.0,-16776.6,-100000.0,-100000.0,97716.0,97705.2,97682.3,97737.8
210.0,-100000.0,-16591.7,-100000.0,-100000.0,97429.9,97419.1,97396.3,97452.0
211.0,-100000.0,-16685.6,-100000.0,-100000.0,97388.6,97377.8,97354.4,97409.2
212.0,-100000.0,-16858.4,-100000.0,-100000.0,97663.8,97653.1,97629.7,97684.5
213.0,-100000.0,-16766.6,-100000.0,-100000.0,97731.2,97720.4,97697.5,97752.8
214.0,-100000.0,-16577.3,-100000.0,-100000.0,97474.1,97463.4,97440.6,97496.4
215.0,-100000.0,-16610.2,-100000.0,-100000.0,97347.8,97337.2,97313.8,97368.7
216.0,-100000.0,-16799.0,-100000.0,-100000.0,97611.0,97600.3,97576.8,97631.5
217.0,-100000.0,-16737.4,-100000.0,-100000.0,97736.2,97725.5,97702.4,97757.6
218.0,-100000.0,-16555.5,-100000.0,-100000.0,97525.0,97514.3,97491.6,97547.3
219.0,-100000.0,-16515.2,-100000.0,-100000.0,97323.2,97312.5,97289.1,97344.2
220.0,-100000.0,-16689.8,-100000.0,-100000.0,97552.6,97541.9,97518.3,97572.9
221.0,-100000.0,-16673.2,-100000.0,-100000.0,97726.5,97715.7,97692.6,97747.7
222.0,-100000.0,-16539.2,-100000.0,-100000.0,97569.1,97558.3,97535.6,97591.3
223.0,-100000.0,-16498.9,-100000.0,-100000.0,97309.9,97299.2,97276.1,97331.3
224.0,-100000.0,-16718.4,-100000.0,-100000.0,97483.7,97473.0,97449.4,97504.0
225.0,-100000.0,-16775.5,-100000.0,-100000.0,97702.0,97691.2,97668.0,97723.0
226.0,-100000.0,-16625.2,-100000.0,-100000.0,97607.2,97596.5,97573.7,97629.4
227.0,-100000.0,-16536.9,-100000.0,-100000.0,97314.7,97304.1,97281.0,97336.5
228.0,-100000.0,-16738.4,-100000.0,-100000.0,97413.1,97402.5,97378.9,97433.5
229.0,-100000.0,-16850.7,-100000.0,-100000.0,97664.7,97653.9,97630.7,97685.6
230.0,-100000.0,-16741.0,-100000.0,-100000.0,97631.1,97620.3,97597.5,97653.1
231.0,-100000.0,-16604.8,-100000.0,-100000.0,97332.6,97321.9,97299.0,97354.6
232.0,-100000.0,-16738.2,-100000.0,-100000.0,97348.3,97337.6,97314.0,97368.7
233.0,-100000.0,-16872.2,-100000.0,-100000.0,97622.9,97612.2,97588.8,97643.6
234.0,-100000.0,-16778.8,-100000.0,-100000.0,97653.0,97642.2,97619.3,97674.7
235.0,-100000.0,-16627.7,-100000.0,-100000.0,97371.0,97360.3,97337.5,97393.2
236.0,-100000.0,-16727.2,-100000.0,-100000.0,97296.7,97286.0,97262.5,97317.3
237.0,-100000.0,-16898.8,-100000.0,-100000.0,97572.8,97562.0,97538.6,97593.3
238.0,-100000.0,-16836.7,-100000.0,-100000.0,97659.3,97648.6,97625.5,97680.9
239.0,-100000.0,-16693.9,-100000.0,-100000.0,97412.7,97402.0,97379.2,97435.0
240.0,-100000.0,-16729.1,-100000.0,-100000.0,97254.9,97244.3,97220.9,97275.9
241.0,-100000.0,-16915.8,-100000.0,-100000.0,97510.6,97500.0,97476.4,97531.1
242.0,-100000.0,-16890.9,-100000.0,-100000.0,97651.5,97640.8,97617.7,97672.9
243.0,-100000.0,-16733.4,-100000.0,-100000.0,97458.2,97447.6,97424.8,97480.6
244.0,-100000.0,-16709.6,-100000.0,-100000.0,97235.6,97225.0,97201.7,97256.8
245.0,-100000.0,-16905.6,-100000.0,-100000.0,97449.0,97438.3,97414.7,97469.3
246.0,-100000.0,-16927.6,-100000.0,-100000.0,97637.6,97626.9,97603.7,97658.8
247.0,-100000.0,-16795.4,-100000.0,-100000.0,97502.2,97491.6,97468.7,97524.5
248.0,-100000.0,-16738.1,-100000.0,-100000.0,97231.7,97221.0,97197.9,97253.3
249.0,-100000.0,-16920.5,-100000.0,-100000.0,97382.7,97372.0,97348.5,97403.0
250.0,-100000.0,-16966.4,-100000.0,-100000.0,97613.6,97602.8,97579.6,97634.5
251.0,-100000.0,-16838.5,-100000.0,-100000.0,97539.9,97529.2,97506.3,97562.1
252.0,-100000.0,-16751.9,-100000.0,-100000.0,97243.3,97232.7,97209.7,97265.2
253.0,-100000.0,-16890.3,-100000.0,-100000.0,97317.7,97307.1,97283.5,97338.2
254.0,-100000.0,-16969.8,-100000.0,-100000.0,97579.3,97568.6,97545.3,97600.2
255.0,-100000.0,-16885.9,-100000.0,-100000.0,97566.9,97556.1,97533.3,97588.8
0.0,-100000.0,-16802.8,-100000.0,-100000.0,97271.1,97260.5,97237.5,97293.2
1.0,-100000.0,-16905.4,-100000.0,-100000.0,97258.4,97247.8,97224.2,97278.9
2.0,-100000.0,-17004.9,-100000.0,-100000.0,97537.6,97526.8,97503.4,97558.2
3.0,-100000.0,-16924.8,-100000.0,-100000.0,97586.1,97575.4,97552.4,97607.8
4.0,-100000.0,-16816.9,-100000.0,-100000.0,97311.6,97300.9,97278.1,97333.8
5.0,-100000.0,-16872.6,-100000.0,-100000.0,97208.1,97197.5,97174.0,97228.9
6.0,-100000.0,-16992.0,-100000.0,-100000.0,97484.6,97473.9,97450.4,97505.1
7.0,-100000.0,-16934.5,-100000.0,-100000.0,97594.2,97583.4,97560.3,97615.6
8.0,-100000.0,-16819.2,-100000.0,-100000.0,97362.0,97351.3,97328.5,97384.4
9.0,-100000.0,-16835.1,-100000.0,-100000.0,97177.8,97167.3,97143.9,97198.9
10.0,-100000.0,-16961.6,-100000.0,-100000.0,97427.5,97416.9,97393.3,97447.9
11.0,-100000.0,-16925.7,-100000.0,-100000.0,97589.4,97578.7,97555.6,97610.8
12.0,-100000.0,-16808.7,-100000.0,-100000.0,97409.7,97399.0,97376.2,97432.0
13.0,-100000.0,-16797.5,-100000.0,-100000.0,97160.5,97149.9,97126.6,97181.9
14.0,-100000.0,-16934.7,-100000.0,-100000.0,97363.9,97353.3,97329.7,97384.3
15.0,-100000.0,-16938.4,-100000.0,-100000.0,97575.2,97564.5,97541.2,97596.3
16.0,-100000.0,-16825.5,-100000.0,-100000.0,97456.4,97445.7,97422.9,97478.7
17.0,-100000.0,-16786.6,-100000.0,-100000.0,97165.5,97154.8,97131.8,97187.1
18.0,-100000.0,-16931.9,-100000.0,-100000.0,97297.9,97287.3,97263.6,97318.2
19.0,-100000.0,-16964.5,-100000.0,-100000.0,97548.7,97538.0,97514.7,97569.7
20.0,-100000.0,-16854.2,-100000.0,-100000.0,97493.4,97482.7,97459.8,97515.5
21.0,-100000.0,-16779.0,-100000.0,-100000.0,97186.7,97176.1,97153.0,97208.6
22.0,-100000.0,-16905.9,-100000.0,-100000.0,97233.5,97222.8,97199.2,97253.9
23.0,-100000.0,-16986.0,-100000.0,-100000.0,97507.8,97497.1,97473.7,97528.6
24.0,-100000.0,-16878.6,-100000.0,-100000.0,97517.1,97506.4,97483.4,97539.0
25.0,-100000.0,-16773.7,-100000.0,-100000.0,97219.7,97209.1,97186.2,97242.0
26.0,-100000.0,-16882.9,-100000.0,-100000.0,97170.8,97160.1,97136.5,97191.4
27.0,-100000.0,-17005.5,-100000.0,-100000.0,97454.2,97443.5,97420.0,97474.9
28.0,-100000.0,-16923.0,-100000.0,-100000.0,97526.3,97515.6,97492.6,97548.0
29.0,-100000.0,-16820.1,-100000.0,-100000.0,97258.8,97248.1,97225.3,97281.1
30.0,-100000.0,-16899.6,-100000.0,-100000.0,97120.8,97110.2,97086.7,97141.7
31.0,-100000.0,-17038.5,-100000.0,-100000.0,97395.4,97384.7,97361.1,97415.8
32.0,-100000.0,-16968.9,-100000.0,-100000.0,97525.6,97514.9,97491.7,97547.1
33.0,-100000.0,-16854.4,-100000.0,-100000.0,97304.0,97293.3,97270.4,97326.3
34.0,-100000.0,-16889.1,-100000.0,-100000.0,97088.7,97078.1,97054.6,97109.8
35.0,-100000.0,-17034.7,-100000.0,-100000.0,97327.2,97316.6,97292.9,97347.6
36.0,-100000.0,-17020.3,-100000.0,-100000.0,97509.8,97499.1,97475.8,97531.0
37.0,-100000.0,-16911.8,-100000.0,-100000.0,97348.6,97337.9,97315.0,97370.9
38.0,-100000.0,-16899.1,-100000.0,-100000.0,97078.0,97067.4,97044.2,97099.4
39.0,-100000.0,-17043.3,-100000.0,-100000.0,97255.8,97245.2,97221.5,97276.1
40.0,-100000.0,-17046.3,-100000.0,-100000.0,97484.0,97473.4,97450.0,97505.1
41.0,-100000.0,-16923.9,-100000.0,-100000.0,97387.8,97377.3,97354.3,97410.1
42.0,-100000.0,-16850.0,-100000.0,-100000.0,97087.0,97076.5,97053.4,97108.9
43.0,-100000.0,-16967.2,-100000.0,-100000.0,97189.4,97178.8,97155.1,97209.8
44.0,-100000.0,-16996.8,-100000.0,-100000.0,97449.9,97439.2,97415.7,97470.8
45.0,-100000.0,-16872.6,-100000.0,-100000.0,97417.0,97406.4,97383.4,97439.1
46.0,-100000.0,-16768.5,-100000.0,-100000.0,97111.5,97100.9,97077.9,97133.6
47.0,-100000.0,-16901.2,-100000.0,-100000.0,97124.0,97113.4,97089.7,97144.4
48.0,-100000.0,-17001.7,-100000.0,-100000.0,97402.9,97392.2,97368.7,97423.6
49.0,-100000.0,-16899.1,-100000.0,-100000.0,97433.7,97423.0,97400.0,97455.5
50.0,-100000.0,-16783.1,-100000.0,-100000.0,97147.5,97136.8,97113.9,97169.6
51.0,-100000.0,-16871.6,-100000.0,-100000.0,97069.6,97059.0,97035.4,97090.2
52.0,-100000.0,-17000.9,-100000.0,-100000.0,97349.3,97338.7,97315.1,97369.8
53.0,-100000.0,-16924.5,-100000.0,-100000.0,97439.2,97428.5,97405.4,97460.8
54.0,-100000.0,-16780.0,-100000.0,-100000.0,97192.0,97181.4,97158.5,97214.4
55.0,-100000.0,-16821.0,-100000.0,-100000.0,97031.2,97020.6,96997.1,97052.1
56.0,-100000.0,-16994.1,-100000.0,-100000.0,97288.1,97277.5,97253.8,97308.5
57.0,-100000.0,-16945.3,-100000.0,-100000.0,97432.0,97421.4,97398.1,97453.4
58.0,-100000.0,-16783.1,-100000.0,-100000.0,97237.3,97226.6,97203.7,97259.6
59.0,-100000.0,-16749.2,-100000.0,-100000.0,97007.8,96997.3,96973.9,97029.1
60.0,-100000.0,-16937.9,-100000.0,-100000.0,97221.1,97210.5,97186.8,97241.4
61.0,-100000.0,-16929.3,-100000.0,-100000.0,97416.4,97405.8,97382.4,97437.6
62.0,-100000.0,-16762.1,-100000.0,-100000.0,97281.5,97270.9,97247.9,97303.7
63.0,-100000.0,-16679.0,-100000.0,-100000.0,97004.2,96993.6,96970.4,97025.8
64.0,-100000.0,-16866.3,-100000.0,-100000.0,97155.1,97144.4,97120.7,97175.4
65.0,-100000.0,-16902.9,-100000.0,-100000.0,97392.2,97381.5,97358.1,97413.2
66.0,-100000.0,-16751.4,-100000.0,-100000.0,97319.1,97308.4,97285.5,97341.2
67.0,-100000.0,-16639.4,-100000.0,-100000.0,97017.8,97007.2,96984.1,97039.7
68.0,-100000.0,-16785.9,-100000.0,-100000.0,97088.8,97078.2,97054.4,97109.1
69.0,-100000.0,-16861.3,-100000.0,-100000.0,97356.2,97345.5,97322.0,97377.0
70.0,-100000.0,-16736.4,-100000.0,-100000.0,97347.7,97337.1,97314.0,97369.6
71.0,-100000.0,-16605.3,-100000.0,-100000.0,97047.1,97036.4,97013.3,97069.2
72.0,-100000.0,-16719.9,-100000.0,-100000.0,97029.4,97018.7,96995.0,97049.8
73.0,-100000.0,-16833.5,-100000.0,-100000.0,97313.8,97303.1,97279.6,97334.5
74.0,-100000.0,-16735.5,-100000.0,-100000.0,97366.4,97355.7,97332.5,97388.0
75.0,-100000.0,-16608.2,-100000.0,-100000.0,97088.6,97078.0,97055.0,97110.9
76.0,-100000.0,-16681.8,-100000.0,-100000.0,96978.8,96968.2,96944.6,96999.5
77.0,-100000.0,-16820.4,-100000.0,-100000.0,97258.6,97247.9,97224.2,97279.0
78.0,-100000.0,-16750.0,-100000.0,-100000.0,97370.9,97360.2,97337.0,97392.4
79.0,-100000.0,-16619.0,-100000.0,-100000.0,97133.9,97123.2,97100.2,97156.2
80.0,-100000.0,-16656.9,-100000.0,-100000.0,96940.6,96930.1,96906.5,96961.7
81.0,-100000.0,-16809.8,-100000.0,-100000.0,97194.2,97183.6,97159.8,97214.6
82.0,-100000.0,-16762.4,-100000.0,-100000.0,97362.6,97352.0,97328.7,97384.0
83.0,-100000.0,-16638.9,-100000.0,-100000.0,97179.7,97169.1,97146.2,97202.1
84.0,-100000.0,-16640.8,-100000.0,-100000.0,96921.0,96910.3,96887.0,96942.3
85.0,-100000.0,-16799.2,-100000.0,-100000.0,97121.5,97110.9,97087.2,97141.9
86.0,-100000.0,-16796.1,-100000.0,-100000.0,97337.8,97327.2,97303.8,97359.0
87.0,-100000.0,-16673.1,-100000.0,-100000.0,97219.8,97209.2,97186.1,97242.0
88.0,-100000.0,-16647.7,-100000.0,-100000.0,96921.7,96911.1,96887.8,96943.4
89.0,-100000.0,-16811.8,-100000.0,-100000.0,97051.5,97040.8,97017.1,97071.8
90.0,-100000.0,-16849.1,-100000.0,-100000.0,97307.7,97297.0,97273.5,97328.7
91.0,-100000.0,-16748.5,-100000.0,-100000.0,97255.0,97244.4,97221.4,97277.2
92.0,-100000.0,-16695.2,-100000.0,-100000.0,96940.0,96929.4,96906.2,96961.9
93.0,-100000.0,-16826.6,-100000.0,-100000.0,96982.6,96972.0,96948.3,97003.0
94.0,-100000.0,-16886.7,-100000.0,-100000.0,97264.6,97253.9,97230.4,97285.3
95.0,-100000.0,-16789.3,-100000.0,-100000.0,97276.8,97266.1,97243.0,97298.6
96.0,-100000.0,-16711.6,-100000.0,-100000.0,96975.3,96964.7,96941.6,96997.5
97.0,-100000.0,-16821.7,-100000.0,-100000.0,96925.2,96914.6,96890.9,96945.8
98.0,-100000.0,-16917.5,-100000.0,-100000.0,97215.7,97205.1,97181.5,97236.3
99.0,-100000.0,-16832.0,-100000.0,-100000.0,97289.9,97279.3,97256.2,97311.6
100.0,-100000.0,-16724.4,-100000.0,-100000.0,97020.5,97009.9,96987.0,97042.9
101.0,-100000.0,-16796.7,-100000.0,-100000.0,96879.2,96868.6,96845.0,96899.9
102.0,-100000.0,-16919.5,-100000.0,-100000.0,97156.8,97146.1,97122.4,97177.1
103.0,-100000.0,-16842.6,-100000.0,-100000.0,97291.4,97280.6,97257.4,97312.8
104.0,-100000.0,-16731.8,-100000.0,-100000.0,97072.0,97061.3,97038.4,97094.3
105.0,-100000.0,-16767.2,-100000.0,-100000.0,96853.0,96842.4,96819.0,96874.1
106.0,-100000.0,-16904.3,-100000.0,-100000.0,97091.6,97081.0,97057.3,97111.9
107.0,-100000.0,-16862.2,-100000.0,-100000.0,97279.3,97268.6,97245.3,97300.6
108.0,-100000.0,-16736.6,-100000.0,-100000.0,97120.5,97109.9,97086.9,97142.8
109.0,-100000.0,-16724.6,-100000.0,-100000.0,96846.5,96835.9,96812.6,96868.0
110.0,-100000.0,-16866.3,-100000.0,-100000.0,97026.6,97016.0,96992.1,97046.8
111.0,-100000.0,-16871.5,-100000.0,-100000.0,97259.2,97248.5,97225.1,97280.2
112.0,-100000.0,-16756.4,-100000.0,-100000.0,97164.4,97153.8,97130.8,97186.6
113.0,-100000.0,-16707.8,-100000.0,-100000.0,96858.3,96847.6,96824.5,96880.0
114.0,-100000.0,-16856.8,-100000.0,-100000.0,96959.8,96949.1,96925.3,96980.0
115.0,-100000.0,-16884.2,-100000.0,-100000.0,97225.4,97214.7,97191.2,97246.2
116.0,-100000.0,-16768.5,-100000.0,-100000.0,97195.7,97185.1,97161.9,97217.6
117.0,-100000.0,-16695.5,-100000.0,-100000.0,96884.9,96874.4,96851.2,96907.0
118.0,-100000.0,-16823.1,-100000.0,-100000.0,96896.3,96885.7,96861.9,96916.7
119.0,-100000.0,-16895.2,-100000.0,-100000.0,97184.0,97173.3,97149.8,97204.6
120.0,-100000.0,-16795.6,-100000.0,-100000.0,97219.3,97208.7,97185.6,97241.1
121.0,-100000.0,-16697.9,-100000.0,-100000.0,96928.1,96917.5,96894.5,96950.4
122.0,-100000.0,-16786.7,-100000.0,-100000.0,96845.8,96835.3,96811.6,96866.5
123.0,-100000.0,-16890.9,-100000.0,-100000.0,97134.1,97123.5,97099.9,97154.6
124.0,-100000.0,-16807.0,-100000.0,-100000.0,97229.6,97219.0,97195.8,97251.2
125.0,-100000.0,-16693.8,-100000.0,-100000.0,96976.0,96965.4,96942.4,96998.4
126.0,-100000.0,-16754.0,-100000.0,-100000.0,96806.4,96795.8,96772.2,96827.3
127.0,-100000.0,-16895.4,-100000.0,-100000.0,97074.0,97063.4,97039.6,97094.3
128.0,-100000.0,-16830.6,-100000.0,-100000.0,97227.6,97217.0,97193.6,97249.0
129.0,-100000.0,-16698.9,-100000.0,-100000.0,97029.5,97018.8,96995.9,97051.8
130.0,-100000.0,-16719.1,-100000.0,-100000.0,96789.2,96778.6,96755.2,96810.4
131.0,-100000.0,-16866.1,-100000.0,-100000.0,97009.8,96999.1,96975.3,97030.0
132.0,-100000.0,-16843.5,-100000.0,-100000.0,97215.1,97204.4,97181.0,97236.2
133.0,-100000.0,-16714.6,-100000.0,-100000.0,97078.1,97067.5,97044.5,97100.4
134.0,-100000.0,-16693.3,-100000.0,-100000.0,96788.8,96778.3,96754.9,96810.4
135.0,-100000.0,-16852.1,-100000.0,-100000.0,96942.9,96932.3,96908.4,96963.1
136.0,-100000.0,-16851.8,-100000.0,-100000.0,97191.2,97180.5,97157.0,97212.1
137.0,-100000.0,-16728.1,-100000.0,-100000.0,97118.0,97107.3,97084.3,97140.0
138.0,-100000.0,-16679.5,-100000.0,-100000.0,96806.1,96795.6,96772.3,96828.0
139.0,-100000.0,-16818.2,-100000.0,-100000.0,96878.3,96867.8,96843.9,96898.5
140.0,-100000.0,-16863.7,-100000.0,-100000.0,97156.3,97145.6,97122.1,97177.0
141.0,-100000.0,-16760.7,-100000.0,-100000.0,97148.8,97138.0,97114.9,97170.6
142.0,-100000.0,-16668.5,-100000.0,-100000.0,96840.8,96830.1,96807.0,96862.8
143.0,-100000.0,-16777.2,-100000.0,-100000.0,96819.3,96808.7,96784.9,96839.7
144.0,-100000.0,-16855.0,-100000.0,-100000.0,97109.7,97099.1,97075.4,97130.2
145.0,-100000.0,-16755.6,-100000.0,-100000.0,97167.1,97156.5,97133.3,97188.8
146.0,-100000.0,-16657.6,-100000.0,-100000.0,96886.8,96876.2,96853.1,96909.0
147.0,-100000.0,-16736.3,-100000.0,-100000.0,96772.8,96762.2,96738.5,96793.5
148.0,-100000.0,-16845.4,-100000.0,-100000.0,97057.9,97047.3,97023.6,97078.4
149.0,-100000.0,-16772.0,-100000.0,-100000.0,97174.4,97163.8,97140.5,97195.9
150.0,-100000.0,-16661.6,-100000.0,-100000.0,96937.7,96927.1,96904.1,96960.0
151.0,-100000.0,-16712.1,-100000.0,-100000.0,96739.5,96728.9,96705.4,96760.5
152.0,-100000.0,-16840.0,-100000.0,-100000.0,96994.1,96983.5,96959.7,97014.5
153.0,-100000.0,-16779.1,-100000.0,-100000.0,97167.5,97156.9,97133.4,97188.8
154.0,-100000.0,-16672.8,-100000.0,-100000.0,96987.3,96976.7,96953.7,97009.6
155.0,-100000.0,-16676.1,-100000.0,-100000.0,96725.0,96714.5,96691.1,96746.4
156.0,-100000.0,-16811.7,-100000.0,-100000.0,96928.2,96917.6,96893.8,96948.5
157.0,-100000.0,-16791.8,-100000.0,-100000.0,97150.6,97140.0,97116.6,97171.8
158.0,-100000.0,-16682.3,-100000.0,-100000.0,97034.5,97023.9,97000.8,97056.7
159.0,-100000.0,-16656.2,-100000.0,-100000.0,96732.8,96722.3,96698.9,96754.5
160.0,-100000.0,-16800.0,-100000.0,-100000.0,96861.1,96850.6,96826.7,96881.4
161.0,-100000.0,-16802.6,-100000.0,-100000.0,97122.6,97112.0,97088.4,97143.5
162.0,-100000.0,-16687.4,-100000.0,-100000.0,97073.5,97062.9,97039.8,97095.6
163.0,-100000.0,-16628.8,-100000.0,-100000.0,96757.6,96747.1,96723.8,96779.6
164.0,-100000.0,-16754.4,-100000.0,-100000.0,96798.4,96787.8,96763.9,96818.7
165.0,-100000.0,-16808.9,-100000.0,-100000.0,97085.4,97074.8,97051.1,97106.1
166.0,-100000.0,-16691.6,-100000.0,-100000.0,97101.5,97090.9,97067.7,97123.4
167.0,-100000.0,-16598.1,-100000.0,-100000.0,96799.5,96789.0,96765.8,96821.7
168.0,-100000.0,-16706.9,-100000.0,-100000.0,96746.5,96735.9,96712.1,96767.0
169.0,-100000.0,-16793.1,-100000.0,-100000.0,97038.4,97027.7,97004.0,97058.9
170.0,-100000.0,-16698.2,-100000.0,-100000.0,97115.6,97105.0,97081.6,97137.2
171.0,-100000.0,-16590.8,-100000.0,-100000.0,96848.6,96838.0,96815.0,96870.9
172.0,-100000.0,-16652.3,-100000.0,-100000.0,96704.5,96693.9,96670.2,96725.3
173.0,-100000.0,-16772.5,-100000.0,-100000.0,96982.1,96971.5,96947.7,97002.5
174.0,-100000.0,-16705.0,-100000.0,-100000.0,97118.7,97108.1,97084.8,97140.2
175.0,-100000.0,-16581.6,-100000.0,-100000.0,96901.8,96891.3,96868.2,96924.2
176.0,-100000.0,-16604.2,-100000.0,-100000.0,96683.1,96672.6,96649.0,96704.3
177.0,-100000.0,-16745.7,-100000.0,-100000.0,96920.4,96909.8,96885.9,96940.7
178.0,-100000.0,-16705.2,-100000.0,-100000.0,97109.4,97098.9,97075.4,97130.7
179.0,-100000.0,-16573.5,-100000.0,-100000.0,96953.7,96943.1,96920.0,96976.0
180.0,-100000.0,-16565.2,-100000.0,-100000.0,96677.6,96667.0,96643.6,96699.1
181.0,-100000.0,-16710.3,-100000.0,-100000.0,96854.5,96843.9,96820.0,96874.7
182.0,-100000.0,-16720.4,-100000.0,-100000.0,97088.5,97077.9,97054.3,97109.5
183.0,-100000.0,-16603.7,-100000.0,-100000.0,96997.5,96986.9,96963.8,97019.7
184.0,-100000.0,-16546.4,-100000.0,-100000.0,96693.0,96682.5,96659.2,96714.8
185.0,-100000.0,-16696.7,-100000.0,-100000.0,96789.7,96779.2,96755.3,96810.1
186.0,-100000.0,-16740.1,-100000.0,-100000.0,97055.7,97045.2,97021.6,97076.6
187.0,-100000.0,-16614.8,-100000.0,-100000.0,97030.5,97019.9,96996.7,97052.5
188.0,-100000.0,-16555.8,-100000.0,-100000.0,96716.8,96706.2,96683.1,96738.9
189.0,-100000.0,-16723.1,-100000.0,-100000.0,96717.4,96706.9,96683.0,96737.9
190.0,-100000.0,-16781.2,-100000.0,-100000.0,97006.0,96995.4,96971.7,97026.7
191.0,-100000.0,-16642.2,-100000.0,-100000.0,97048.4,97037.9,97014.6,97070.2
192.0,-100000.0,-16514.2,-100000.0,-100000.0,96763.3,96752.8,96729.6,96785.5
193.0,-100000.0,-16599.8,-100000.0,-100000.0,96677.7,96667.2,96643.4,96698.4
194.0,-100000.0,-16742.7,-100000.0,-100000.0,96959.1,96948.5,96924.8,96979.7
195.0,-100000.0,-16675.2,-100000.0,-100000.0,97055.0,97044.3,97021.0,97076.5
196.0,-100000.0,-16528.5,-100000.0,-100000.0,96810.9,96800.4,96777.3,96833.3
197.0,-100000.0,-16574.1,-100000.0,-100000.0,96643.5,96632.9,96609.3,96664.4
198.0,-100000.0,-16731.1,-100000.0,-100000.0,96902.0,96891.4,96867.6,96922.3
199.0,-100000.0,-16678.5,-100000.0,-100000.0,97054.0,97043.3,97019.9,97075.3
200.0,-100000.0,-16541.8,-100000.0,-100000.0,96860.7,96850.1,96827.0,96883.0
201.0,-100000.0,-16536.2,-100000.0,-100000.0,96623.1,96612.5,96589.0,96644.3
202.0,-100000.0,-16696.7,-100000.0,-100000.0,96837.6,96827.1,96803.2,96857.9
203.0,-100000.0,-16686.5,-100000.0,-100000.0,97039.8,97029.2,97005.7,97061.0
204.0,-100000.0,-16557.0,-100000.0,-100000.0,96906.3,96895.6,96872.6,96928.5
205.0,-100000.0,-16541.8,-100000.0,-100000.0,96618.3,96607.8,96584.3,96639.9
206.0,-100000.0,-16702.3,-100000.0,-100000.0,96769.7,96759.2,96735.3,96790.1
207.0,-100000.0,-16704.4,-100000.0,-100000.0,97018.1,97007.4,96983.9,97039.1
208.0,-100000.0,-16585.8,-100000.0,-100000.0,96948.3,96937.8,96914.6,96970.6
209.0,-100000.0,-16544.1,-100000.0,-100000.0,96633.5,96623.1,96599.7,96655.5
210.0,-100000.0,-16686.6,-100000.0,-100000.0,96699.7,96689.2,96665.3,96720.0
211.0,-100000.0,-16719.9,-100000.0,-100000.0,96980.0,96969.4,96945.7,97000.7
212.0,-100000.0,-16607.4,-100000.0,-100000.0,96976.6,96966.0,96942.8,96998.5
213.0,-100000.0,-16535.6,-100000.0,-100000.0,96665.2,96654.7,96631.5,96687.4
214.0,-100000.0,-16654.0,-100000.0,-100000.0,96638.1,96627.5,96603.7,96658.5
215.0,-100000.0,-16719.2,-100000.0,-100000.0,96932.4,96921.8,96898.1,96953.0
216.0,-100000.0,-16615.5,-100000.0,-100000.0,96991.8,96981.2,96958.0,97013.5
217.0,-100000.0,-16563.2,-100000.0,-100000.0,96705.3,96694.8,96671.8,96727.7
218.0,-100000.0,-16681.0,-100000.0,-100000.0,96583.0,96572.6,96548.8,96603.8
219.0,-100000.0,-16762.0,-100000.0,-100000.0,96874.9,96864.3,96840.4,96895.3
220.0,-100000.0,-16674.2,-100000.0,-100000.0,96997.5,96986.9,96963.5,97019.0
221.0,-100000.0,-16604.7,-100000.0,-100000.0,96755.5,96745.0,96722.0,96778.0
222.0,-100000.0,-16699.2,-100000.0,-100000.0,96549.4,96538.8,96515.2,96570.3
223.0,-100000.0,-16830.7,-100000.0,-100000.0,96807.0,96796.4,96772.6,96827.2
224.0,-100000.0,-16776.5,-100000.0,-100000.0,96985.4,96974.7,96951.3,97006.6
225.0,-100000.0,-16705.2,-100000.0,-100000.0,96803.7,96793.1,96770.0,96826.0
226.0,-100000.0,-16801.3,-100000.0,-100000.0,96531.6,96521.1,96497.6,96553.0
227.0,-100000.0,-16974.8,-100000.0,-100000.0,96730.6,96720.0,96696.1,96750.8
228.0,-100000.0,-16948.8,-100000.0,-100000.0,96956.8,96946.3,96922.7,96977.9
229.0,-100000.0,-16865.1,-100000.0,-100000.0,96841.9,96831.3,96808.2,96864.2
230.0,-100000.0,-16891.8,-100000.0,-100000.0,96534.4,96523.8,96500.5,96556.1
231.0,-100000.0,-17050.4,-100000.0,-100000.0,96655.7,96645.1,96621.3,96676.0
232.0,-100000.0,-17052.3,-100000.0,-100000.0,96917.4,96906.8,96883.2,96938.3
233.0,-100000.0,-16943.8,-100000.0,-100000.0,96870.9,96860.3,96837.1,96892.8
234.0,-100000.0,-16951.7,-100000.0,-100000.0,96550.4,96539.8,96516.6,96572.4
235.0,-100000.0,-17123.1,-100000.0,-100000.0,96580.2,96569.6,96545.8,96600.5
236.0,-100000.0,-17120.1,-100000.0,-100000.0,96873.6,96863.1,96839.4,96894.3
237.0,-100000.0,-16977.6,-100000.0,-100000.0,96897.9,96887.3,96864.1,96919.7
238.0,-100000.0,-16900.3,-100000.0,-100000.0,96600.0,96589.4,96566.2,96622.2
239.0,-100000.0,-17036.4,-100000.0,-100000.0,96537.1,96526.5,96502.6,96557.6
240.0,-100000.0,-17147.4,-100000.0,-100000.0,96821.5,96810.9,96787.1,96842.0
241.0,-100000.0,-17051.5,-100000.0,-100000.0,96903.8,96893.1,96869.8,96925.3
242.0,-100000.0,-16984.2,-100000.0,-100000.0,96638.3,96627.7,96604.6,96660.5
243.0,-100000.0,-17106.9,-100000.0,-100000.0,96482.0,96471.4,96447.7,96502.8
244.0,-100000.0,-17174.8,-100000.0,-100000.0,96758.6,96748.0,96724.1,96778.9
245.0,0.0,-16937.2,-100000.0,-100000.0,96469.0,96458.5,96430.3,96485.5
246.0,0.0,-17017.7,-100000.0,-100000.0,96734.9,96724.3,96695.9,96750.7
247.0,0.0,-16905.1,-100000.0,-100000.0,96906.0,96895.4,96867.4,96922.8
248.0,0.0,-16797.1,-100000.0,-100000.0,96711.8,96701.2,96673.6,96729.6
249.0,0.0,-16901.9,-100000.0,-100000.0,96448.9,96438.5,96410.3,96465.8
250.0,0.0,-17034.5,-100000.0,-100000.0,96663.5,96652.9,96624.4,96679.2
251.0,0.0,-16928.5,-100000.0,-100000.0,96885.6,96875.0,96846.9,96902.3
252.0,0.0,-16803.6,-100000.0,-100000.0,96756.9,96746.4,96718.7,96774.7
253.0,0.0,-16867.0,-100000.0,-100000.0,96451.2,96440.8,96412.8,96468.4
254.0,0.0,-17021.8,-100000.0,-100000.0,96592.7,96582.2,96553.7,96608.5
255.0,0.0,-16952.1,-100000.0,-100000.0,96855.5,96845.0,96816.7,96871.9
0.0,0.0,-16812.8,-100000.0,-100000.0,96795.6,96785.1,96757.3,96813.2
1.0,0.0,-16832.4,-100000.0,-100000.0,96472.3,96461.9,96434.0,96489.8
2.0,0.0,-16987.5,-100000.0,-100000.0,96526.8,96516.2,96487.7,96542.5
3.0,0.0,-16965.5,-100000.0,-100000.0,96816.1,96805.5,96777.3,96832.3
4.0,0.0,-16823.7,-100000.0,-100000.0,96822.7,96812.2,96784.3,96840.1
5.0,0.0,-16811.3,-100000.0,-100000.0,96509.1,96498.7,96470.9,96526.8
6.0,0.0,-16981.5,-100000.0,-100000.0,96465.1,96454.6,96426.2,96481.1
7.0,0.0,-16996.3,-100000.0,-100000.0,96764.4,96753.8,96725.5,96780.4
8.0,0.0,-16844.2,-100000.0,-100000.0,96838.9,96828.3,96800.4,96856.0
9.0,0.0,-16783.5,-100000.0,-100000.0,96557.7,96547.3,96519.5,96575.6
10.0,0.0,-16923.0,-100000.0,-100000.0,96420.4,96410.0,96381.6,96436.6
11.0,0.0,-16984.6,-100000.0,-100000.0,96707.6,96697.1,96668.6,96723.5
12.0,0.0,-16835.6,-100000.0,-100000.0,96841.6,96831.1,96803.0,96858.5
13.0,0.0,-16752.5,-100000.0,-100000.0,96609.6,96599.1,96571.4,96627.5
14.0,0.0,-16867.3,-100000.0,-100000.0,96391.9,96381.4,96353.2,96408.5
15.0,0.0,-16960.3,-100000.0,-100000.0,96643.4,96632.8,96604.2,96659.1
16.0,0.0,-16832.4,-100000.0,-100000.0,96832.6,96822.1,96794.0,96849.4
17.0,0.0,-16712.5,-100000.0,-100000.0,96663.7,96653.2,96625.5,96681.5
18.0,0.0,-16791.9,-100000.0,-100000.0,96386.3,96375.8,96347.7,96403.2
19.0,0.0,-16923.1,-100000.0,-100000.0,96576.9,96566.4,96537.9,96592.7
20.0,0.0,-16829.7,-100000.0,-100000.0,96813.1,96802.6,96774.4,96829.7
21.0,0.0,-16688.5,-100000.0,-100000.0,96710.0,96699.4,96671.6,96727.6
22.0,0.0,-16731.1,-100000.0,-100000.0,96395.9,96385.4,96357.3,96413.1
23.0,0.0,-16894.3,-100000.0,-100000.0,96506.7,96496.2,96467.6,96522.4
24.0,0.0,-16842.0,-100000.0,-100000.0,96779.9,96769.3,96741.1,96796.2
25.0,0.0,-16690.3,-100000.0,-100000.0,96745.6,96735.1,96707.3,96763.1
26.0,0.0,-16696.0,-100000.0,-100000.0,96425.6,96415.2,96387.3,96443.2
27.0,0.0,-16865.7,-100000.0,-100000.0,96442.9,96432.5,96403.9,96458.8
28.0,0.0,-16863.6,-100000.0,-100000.0,96735.4,96724.8,96696.4,96751.5
29.0,0.0,-16713.7,-100000.0,-100000.0,96768.1,96757.5,96729.6,96785.4
30.0,0.0,-16672.9,-100000.0,-100000.0,96466.3,96455.8,96428.0,96484.0
31.0,0.0,-16832.8,-100000.0,-100000.0,96389.2,96378.7,96350.2,96405.3
32.0,0.0,-16883.0,-100000.0,-100000.0,96683.4,96672.8,96644.3,96699.3
33.0,0.0,-16745.0,-100000.0,-100000.0,96777.6,96767.1,96739.0,96794.7
34.0,0.0,-16676.1,-100000.0,-100000.0,96514.6,96504.2,96476.4,96532.5
35.0,0.0,-16813.9,-100000.0,-100000.0,96348.8,96338.5,96310.0,96365.3
36.0,0.0,-16904.2,-100000.0,-100000.0,96622.2,96611.8,96583.2,96638.1
37.0,0.0,-16782.1,-100000.0,-100000.0,96777.3,96766.8,96738.7,96794.2
38.0,0.0,-16681.5,-100000.0,-100000.0,96568.4,96557.9,96530.2,96586.3
39.0,0.0,-16785.4,-100000.0,-100000.0,96328.8,96318.3,96290.1,96345.5
40.0,0.0,-16907.3,-100000.0,-100000.0,96560.5,96549.9,96521.4,96576.2
41.0,0.0,-16802.6,-100000.0,-100000.0,96766.2,96755.6,96727.5,96782.8
42.0,0.0,-16673.9,-100000.0,-100000.0,96620.3,96609.8,96582.0,96638.1
43.0,0.0,-16736.8,-100000.0,-100000.0,96329.0,96318.6,96290.4,96346.1
44.0,0.0,-16877.1,-100000.0,-100000.0,96494.9,96484.5,96455.8,96510.7
45.0,0.0,-16791.3,-100000.0,-100000.0,96745.9,96735.3,96707.0,96762.3
46.0,0.0,-16660.8,-100000.0,-100000.0,96664.2,96653.7,96625.8,96681.8
47.0,0.0,-16687.9,-100000.0,-100000.0,96344.9,96334.5,96306.4,96362.3
48.0,0.0,-16843.2,-100000.0,-100000.0,96427.0,96416.5,96387.9,96442.7
49.0,0.0,-16801.6,-100000.0,-100000.0,96708.9,96698.5,96670.1,96725.3
50.0,0.0,-16648.2,-100000.0,-100000.0,96696.9,96686.4,96658.5,96714.4
51.0,0.0,-16635.0,-100000.0,-100000.0,96380.0,96369.5,96341.6,96397.6
52.0,0.0,-16801.8,-100000.0,-100000.0,96368.4,96358.0,96329.4,96384.4
53.0,0.0,-16801.8,-100000.0,-100000.0,96667.7,96657.2,96628.8,96683.8
54.0,0.0,-16642.9,-100000.0,-100000.0,96720.6,96710.1,96682.2,96737.9
55.0,0.0,-16597.7,-100000.0,-100000.0,96426.8,96416.3,96388.4,96444.5
56.0,0.0,-16752.3,-100000.0,-100000.0,96319.5,96309.1,96280.6,96335.6
57.0,0.0,-16796.8,-100000.0,-100000.0,96612.7,96602.2,96573.7,96628.7
58.0,0.0,-16649.4,-100000.0,-100000.0,96728.9,96718.4,96690.3,96745.9
59.0,0.0,-16569.1,-100000.0,-100000.0,96481.0,96470.5,96442.8,96498.9
60.0,0.0,-16695.7,-100000.0,-100000.0,96287.6,96277.2,96248.8,96304.1
61.0,0.0,-16779.5,-100000.0,-100000.0,96552.5,96542.1,96513.5,96568.3
62.0,0.0,-16648.7,-100000.0,-100000.0,96725.7,96715.3,96687.1,96742.6
63.0,0.0,-16542.0,-100000.0,-100000.0,96536.5,96526.1,96498.3,96554.4
64.0,0.0,-16642.5,-100000.0,-100000.0,96274.9,96264.5,96236.3,96291.8
65.0,0.0,-16777.6,-100000.0,-100000.0,96486.8,96476.3,96447.7,96502.6
66.0,0.0,-16681.0,-100000.0,-100000.0,96710.2,96699.7,96671.5,96726.8
67.0,0.0,-16541.4,-100000.0,-100000.0,96587.1,96576.6,96548.8,96604.8
68.0,0.0,-16587.9,-100000.0,-100000.0,96283.6,96273.1,96245.1,96300.7
69.0,0.0,-16754.1,-100000.0,-100000.0,96419.4,96408.9,96380.3,96435.2
70.0,0.0,-16695.8,-100000.0,-100000.0,96680.6,96670.1,96641.8,96697.0
71.0,0.0,-16546.0,-100000.0,-100000.0,96624.8,96614.3,96586.5,96642.4
72.0,0.0,-16546.7,-100000.0,-100000.0,96306.4,96295.9,96268.0,96323.9
73.0,0.0,-16713.9,-100000.0,-100000.0,96356.4,96346.0,96317.4,96372.2
74.0,0.0,-16729.8,-100000.0,-100000.0,96638.0,96627.5,96599.1,96654.2
75.0,0.0,-16599.1,-100000.0,-100000.0,96644.6,96634.1,96606.1,96661.9
76.0,0.0,-16479.1,-100000.0,-100000.0,96351.8,96341.4,96313.5,96369.5
77.0,0.0,-16601.1,-100000.0,-100000.0,96314.1,96303.7,96275.2,96330.2
78.0,0.0,-16740.3,-100000.0,-100000.0,96591.7,96581.2,96552.8,96607.9
79.0,0.0,-16643.9,-100000.0,-100000.0,96658.4,96647.9,96619.9,96675.6
80.0,0.0,-16497.2,-100000.0,-100000.0,96397.7,96387.3,96359.5,96415.5
81.0,0.0,-16562.4,-100000.0,-100000.0,96275.8,96265.4,96237.0,96292.1
82.0,0.0,-16725.6,-100000.0,-100000.0,96540.2,96529.7,96501.2,96556.1
83.0,0.0,-16657.0,-100000.0,-100000.0,96660.4,96649.9,96621.8,96677.4
84.0,0.0,-16501.9,-100000.0,-100000.0,96444.9,96434.4,96406.5,96462.7
85.0,0.0,-16507.6,-100000.0,-100000.0,96249.9,96239.5,96211.1,96266.5
86.0,0.0,-16712.2,-100000.0,-100000.0,96483.1,96472.6,96444.1,96498.9
87.0,0.0,-16705.5,-100000.0,-100000.0,96652.5,96642.0,96613.8,96669.3
88.0,0.0,-16541.6,-100000.0,-100000.0,96493.7,96483.2,96455.3,96511.4
89.0,0.0,-16494.2,-100000.0,-100000.0,96242.5,96232.1,96203.8,96259.3
90.0,0.0,-16684.1,-100000.0,-100000.0,96424.0,96413.6,96384.9,96439.8
91.0,0.0,-16710.5,-100000.0,-100000.0,96638.3,96627.8,96599.5,96654.8
92.0,0.0,-16562.9,-100000.0,-100000.0,96539.9,96529.4,96501.5,96557.5
93.0,0.0,-16474.6,-100000.0,-100000.0,96253.7,96243.3,96215.2,96270.9
94.0,0.0,-16654.4,-100000.0,-100000.0,96361.2,96350.8,96322.2,96377.0
95.0,0.0,-16723.4,-100000.0,-100000.0,96609.2,96598.7,96570.3,96625.6
96.0,0.0,-16587.7,-100000.0,-100000.0,96572.1,96561.7,96533.7,96589.6
97.0,0.0,-16471.3,-100000.0,-100000.0,96275.6,96265.1,96237.1,96293.0
98.0,0.0,-16616.8,-100000.0,-100000.0,96299.5,96289.0,96260.4,96315.4
99.0,0.0,-16728.5,-100000.0,-100000.0,96572.1,96561.5,96533.1,96588.2
100.0,0.0,-16621.0,-100000.0,-100000.0,96595.8,96585.2,96557.2,96612.9
101.0,0.0,-16486.7,-100000.0,-100000.0,96310.9,96300.4,96272.5,96328.5
102.0,0.0,-16580.1,-100000.0,-100000.0,96246.8,96236.4,96207.8,96262.9
103.0,0.0,-16726.4,-100000.0,-100000.0,96521.8,96511.4,96482.9,96537.9
104.0,0.0,-16652.6,-100000.0,-100000.0,96604.3,96593.8,96565.8,96621.4
105.0,0.0,-16507.7,-100000.0,-100000.0,96355.4,96345.0,96317.1,96373.2
106.0,0.0,-16550.1,-100000.0,-100000.0,96207.1,96196.7,96168.2,96223.4
107.0,0.0,-16723.4,-100000.0,-100000.0,96467.7,96457.2,96428.6,96483.6
108.0,0.0,-16670.6,-100000.0,-100000.0,96605.8,96595.3,96567.2,96622.7
109.0,0.0,-16518.9,-100000.0,-100000.0,96404.5,96394.0,96366.2,96422.3
110.0,0.0,-16524.1,-100000.0,-100000.0,96182.5,96172.1,96143.8,96199.2
111.0,0.0,-16701.6,-100000.0,-100000.0,96404.2,96393.8,96365.1,96420.0
112.0,0.0,-16678.8,-100000.0,-100000.0,96595.3,96584.8,96556.6,96612.0
113.0,0.0,-16537.3,-100000.0,-100000.0,96452.0,96441.5,96413.7,96469.7
114.0,0.0,-16495.5,-100000.0,-100000.0,96178.2,96167.8,96139.6,96195.2
115.0,0.0,-16663.0,-100000.0,-100000.0,96341.6,96331.2,96302.5,96357.3
116.0,0.0,-16677.9,-100000.0,-100000.0,96576.5,96566.0,96537.7,96592.9
117.0,0.0,-16553.4,-100000.0,-100000.0,96494.4,96483.9,96456.1,96512.0
118.0,0.0,-16496.9,-100000.0,-100000.0,96190.2,96179.8,96151.7,96207.5
119.0,0.0,-16631.6,-100000.0,-100000.0,96276.5,96266.1,96237.4,96292.3
120.0,0.0,-16665.5,-100000.0,-100000.0,96547.9,96537.5,96509.1,96564.2
121.0,0.0,-16551.0,-100000.0,-100000.0,96529.6,96519.1,96491.1,96547.0
122.0,0.0,-16488.5,-100000.0,-100000.0,96220.0,96209.6,96181.6,96237.6
123.0,0.0,-16609.3,-100000.0,-100000.0,96216.8,96206.4,96177.8,96232.7
124.0,0.0,-16667.4,-100000.0,-100000.0,96507.2,96496.7,96468.3,96523.3
125.0,0.0,-16556.3,-100000.0,-100000.0,96552.8,96542.3,96514.3,96570.0
126.0,0.0,-16496.9,-100000.0,-100000.0,96262.6,96252.3,96224.3,96280.4
127.0,0.0,-16606.7,-100000.0,-100000.0,96161.5,96151.2,96122.6,96177.7
128.0,0.0,-16683.7,-100000.0,-100000.0,96451.5,96441.1,96412.5,96467.5
129.0,0.0,-16586.4,-100000.0,-100000.0,96560.3,96549.9,96521.8,96577.4
130.0,0.0,-16506.9,-100000.0,-100000.0,96311.5,96301.0,96273.1,96329.2
131.0,0.0,-16608.4,-100000.0,-100000.0,96120.7,96110.3,96081.8,96137.1
132.0,0.0,-16695.3,-100000.0,-100000.0,96385.5,96375.0,96346.4,96401.3
133.0,0.0,-16611.3,-100000.0,-100000.0,96554.2,96543.6,96515.5,96571.0
134.0,0.0,-16526.3,-100000.0,-100000.0,96362.4,96351.9,96324.0,96380.2
135.0,0.0,-16600.0,-100000.0,-100000.0,96104.1,96093.7,96065.4,96120.8
136.0,0.0,-16725.5,-100000.0,-100000.0,96315.5,96305.1,96276.4,96331.2
137.0,0.0,-16652.6,-100000.0,-100000.0,96534.7,96524.2,96495.9,96551.3
138.0,0.0,-16542.5,-100000.0,-100000.0,96409.1,96398.6,96370.7,96426.8
139.0,0.0,-16583.3,-100000.0,-100000.0,96106.4,96096.0,96067.8,96123.5
140.0,0.0,-16729.5,-100000.0,-100000.0,96244.6,96234.2,96205.5,96260.3
141.0,0.0,-16700.6,-100000.0,-100000.0,96502.0,96491.6,96463.1,96518.3
142.0,0.0,-16572.6,-100000.0,-100000.0,96443.4,96432.9,96405.0,96460.9
143.0,0.0,-16549.8,-100000.0,-100000.0,96126.1,96115.6,96087.6,96143.5
144.0,0.0,-16707.4,-100000.0,-100000.0,96177.4,96167.1,96138.3,96193.3
145.0,0.0,-16743.7,-100000.0,-100000.0,96457.7,96447.3,96418.8,96473.9
146.0,0.0,-16615.4,-100000.0,-100000.0,96463.9,96453.4,96425.3,96481.2
147.0,0.0,-16545.2,-100000.0,-100000.0,96162.6,96152.1,96124.1,96180.2
148.0,0.0,-16678.1,-100000.0,-100000.0,96122.3,96111.9,96083.3,96138.3
149.0,0.0,-16761.4,-100000.0,-100000.0,96408.3,96397.9,96369.3,96424.3
150.0,0.0,-16665.1,-100000.0,-100000.0,96475.8,96465.3,96437.1,96492.8
151.0,0.0,-16552.4,-100000.0,-100000.0,96206.1,96195.8,96167.8,96223.9
152.0,0.0,-16638.7,-100000.0,-100000.0,96077.3,96067.0,96038.4,96093.5
153.0,0.0,-16767.5,-100000.0,-100000.0,96350.8,96340.4,96311.7,96366.6
154.0,0.0,-16697.7,-100000.0,-100000.0,96475.9,96465.4,96437.3,96492.7
155.0,0.0,-16576.4,-100000.0,-100000.0,96254.3,96243.8,96216.0,96272.0
156.0,0.0,-16618.4,-100000.0,-100000.0,96047.9,96037.5,96009.1,96064.4
157.0,0.0,-16775.1,-100000.0,-100000.0,96287.1,96276.7,96248.0,96302.9
158.0,0.0,-16708.4,-100000.0,-100000.0,96468.9,96458.5,96430.2,96485.6
159.0,0.0,-16565.2,-100000.0,-100000.0,96305.0,96294.5,96266.6,96322.7
160.0,0.0,-16585.8,-100000.0,-100000.0,96037.0,96026.6,95998.3,96053.9
161.0,0.0,-16744.9,-100000.0,-100000.0,96221.9,96211.5,96182.8,96237.6
162.0,0.0,-16717.8,-100000.0,-100000.0,96450.5,96440.0,96411.6,96467.0
163.0,0.0,-16577.9,-100000.0,-100000.0,96349.9,96339.5,96311.5,96367.6
164.0,0.0,-16571.0,-100000.0,-100000.0,96043.9,96033.5,96005.3,96061.1
165.0,0.0,-16730.7,-100000.0,-100000.0,96152.6,96142.2,96113.5,96168.4
166.0,0.0,-16722.1,-100000.0,-100000.0,96418.6,96408.2,96379.7,96435.0
167.0,0.0,-16585.1,-100000.0,-100000.0,96383.5,96373.1,96345.1,96401.0
168.0,0.0,-16552.5,-100000.0,-100000.0,96066.8,96056.4,96028.3,96084.3
169.0,0.0,-16701.6,-100000.0,-100000.0,96085.9,96075.5,96046.8,96101.7
170.0,0.0,-16720.7,-100000.0,-100000.0,96375.6,96365.2,96336.6,96391.7
171.0,0.0,-16590.6,-100000.0,-100000.0,96405.7,96395.2,96367.2,96422.9
172.0,0.0,-16537.2,-100000.0,-100000.0,96105.7,96095.3,96067.3,96123.4
173.0,0.0,-16664.9,-100000.0,-100000.0,96030.0,96019.6,95990.9,96045.9
174.0,0.0,-16731.1,-100000.0,-100000.0,96324.6,96314.2,96285.6,96340.6
175.0,0.0,-16615.1,-100000.0,-100000.0,96416.3,96405.9,96377.7,96433.4
176.0,0.0,-16525.9,-100000.0,-100000.0,96153.5,96143.2,96115.2,96171.4
177.0,0.0,-16620.8,-100000.0,-100000.0,95992.1,95981.8,95953.2,96008.4
178.0,0.0,-16752.6,-100000.0,-100000.0,96261.9,96251.5,96222.8,96277.8
179.0,0.0,-16691.3,-100000.0,-100000.0,96407.9,96397.5,96369.2,96424.7
180.0,0.0,-16590.7,-100000.0,-100000.0,96201.5,96191.1,96163.2,96219.3
181.0,0.0,-16646.0,-100000.0,-100000.0,95969.7,95959.3,95930.9,95986.3
182.0,0.0,-16806.9,-100000.0,-100000.0,96194.5,96184.0,96155.3,96210.1
183.0,0.0,-16771.4,-100000.0,-100000.0,96390.4,96379.9,96351.6,96407.0
184.0,0.0,-16665.1,-100000.0,-100000.0,96243.6,96233.1,96205.2,96261.3
185.0,0.0,-16687.4,-100000.0,-100000.0,95959.5,95949.1,95920.8,95976.4
186.0,0.0,-16862.3,-100000.0,-100000.0,96120.8,96110.4,96081.6,96136.5
187.0,0.0,-16872.5,-100000.0,-100000.0,96360.2,96349.8,96321.4,96376.7
188.0,0.0,-16759.6,-100000.0,-100000.0,96280.5,96270.1,96242.1,96298.1
189.0,0.0,-16718.0,-100000.0,-100000.0,95972.9,95962.6,95934.4,95990.2
190.0,0.0,-16873.1,-100000.0,-100000.0,96054.0,96043.6,96014.9,96069.8
191.0,0.0,-16922.1,-100000.0,-100000.0,96323.4,96312.9,96284.4,96339.6
192.0,0.0,-16782.3,-100000.0,-100000.0,96308.5,96298.0,96269.9,96325.8
193.0,0.0,-16659.4,-100000.0,-100000.0,96006.6,95996.2,95968.1,96024.1
194.0,0.0,-16758.6,-100000.0,-100000.0,95999.4,95989.0,95960.3,96015.3
195.0,0.0,-16843.1,-100000.0,-100000.0,96280.9,96270.4,96242.0,96297.0
196.0,0.0,-16738.0,-100000.0,-100000.0,96326.7,96316.3,96288.2,96343.9
197.0,0.0,-16830.9,0.0,-100000.0,96252.3,96241.9,96217.0,96272.1
198.0,0.0,-16748.5,0.0,-100000.0,96321.5,96311.1,96286.6,96342.4
199.0,0.0,-16640.0,0.0,-100000.0,96053.9,96043.5,96019.2,96075.4
200.0,0.0,-16699.8,0.0,-100000.0,95921.9,95911.6,95886.7,95941.9
201.0,0.0,-16830.2,0.0,-100000.0,96193.7,96183.3,96158.3,96213.3
202.0,0.0,-16759.9,0.0,-100000.0,96322.2,96311.8,96287.2,96342.9
203.0,0.0,-16646.2,0.0,-100000.0,96103.0,96092.6,96068.4,96124.6
204.0,0.0,-16679.8,0.0,-100000.0,95887.3,95876.9,95852.1,95907.6
205.0,0.0,-16817.7,0.0,-100000.0,96124.3,96113.9,96088.8,96143.8
206.0,0.0,-16757.1,0.0,-100000.0,96311.1,96300.7,96276.0,96331.5
207.0,0.0,-16647.0,0.0,-100000.0,96149.0,96138.6,96114.3,96170.5
208.0,0.0,-16696.2,0.0,-100000.0,95870.4,95860.1,95835.5,95891.1
209.0,0.0,-16835.7,0.0,-100000.0,96050.9,96040.6,96015.5,96070.4
210.0,0.0,-16766.8,0.0,-100000.0,96289.9,96279.6,96254.8,96310.2
211.0,0.0,-16635.8,0.0,-100000.0,96195.2,96184.9,96160.5,96216.7
212.0,0.0,-16700.3,0.0,-100000.0,95873.1,95862.8,95838.3,95894.1
213.0,0.0,-16872.5,0.0,-100000.0,95970.9,95960.6,95935.4,95990.3
214.0,0.0,-16790.5,0.0,-100000.0,96254.8,96244.4,96219.5,96274.8
215.0,0.0,-16639.8,0.0,-100000.0,96232.1,96221.7,96197.2,96253.2
216.0,0.0,-16633.0,0.0,-100000.0,95912.0,95901.7,95877.2,95933.2
217.0,0.0,-16824.9,0.0,-100000.0,95913.2,95902.9,95877.8,95932.8
218.0,0.0,-16864.5,0.0,-100000.0,96201.5,96191.0,96166.1,96221.3
219.0,0.0,-16723.4,0.0,-100000.0,96240.4,96229.9,96205.6,96261.4
220.0,0.0,-16621.7,0.0,-100000.0,95955.1,95944.8,95920.5,95976.6
221.0,0.0,-16732.1,0.0,-100000.0,95878.0,95867.6,95842.7,95897.8
222.0,0.0,-16884.4,0.0,-100000.0,96152.4,96142.0,96117.0,96172.2
223.0,0.0,-16826.6,0.0,-100000.0,96239.4,96229.1,96204.5,96260.2
224.0,0.0,-16699.8,0.0,-100000.0,95993.3,95982.9,95958.6,96014.8
225.0,0.0,-16730.8,0.0,-100000.0,95837.6,95827.2,95802.4,95857.6
226.0,0.0,-16921.4,0.0,-100000.0,96090.9,96080.5,96055.5,96110.5
227.0,0.0,-16904.4,0.0,-100000.0,96230.8,96220.4,96195.8,96251.4
228.0,0.0,-16754.2,0.0,-100000.0,96038.9,96028.6,96004.3,96060.4
229.0,0.0,-16733.7,0.0,-100000.0,95816.7,95806.5,95781.7,95837.2
230.0,0.0,-16940.3,0.0,-100000.0,96025.8,96015.4,95990.4,96045.3
231.0,0.0,-16964.7,0.0,-100000.0,96211.4,96201.0,96176.3,96231.7
232.0,0.0,-16818.2,0.0,-100000.0,96079.6,96069.2,96044.9,96101.0
233.0,0.0,-16732.0,0.0,-100000.0,95813.8,95803.5,95778.8,95834.5
234.0,0.0,-16928.4,0.0,-100000.0,95961.3,95950.8,95925.8,95980.7
235.0,0.0,-17007.7,0.0,-100000.0,96187.0,96176.5,96151.8,96207.2
236.0,0.0,-16882.7,0.0,-100000.0,96114.0,96103.6,96079.3,96135.3
237.0,0.0,-16745.0,0.0,-100000.0,95826.3,95816.0,95791.5,95847.4
238.0,0.0,-16916.1,0.0,-100000.0,95897.2,95886.7,95861.7,95916.7
239.0,0.0,-17053.0,0.0,-100000.0,96150.4,96139.9,96115.1,96170.3
240.0,0.0,-16944.8,0.0,-100000.0,96139.0,96128.6,96104.1,96160.0
241.0,0.0,-16762.3,0.0,-100000.0,95854.2,95843.9,95819.4,95875.4
242.0,0.0,-16873.1,0.0,-100000.0,95839.3,95828.9,95803.9,95858.9
243.0,0.0,-17049.7,0.0,-100000.0,96105.0,96094.7,96069.8,96124.9
244.0,0.0,-16967.7,0.0,-100000.0,96153.3,96142.9,96118.4,96174.2
245.0,0.0,-16784.5,0.0,-100000.0,95893.4,95883.1,95858.7,95914.8
246.0,0.0,-16831.2,0.0,-100000.0,95794.7,95784.4,95759.5,95814.6
247.0,0.0,-17030.4,0.0,-100000.0,96056.4,96046.0,96021.0,96076.1
248.0,0.0,-16976.8,0.0,-100000.0,96160.6,96150.3,96125.6,96181.3
249.0,0.0,-16785.8,0.0,-100000.0,95939.7,95929.4,95905.0,95961.2
250.0,0.0,-16770.5,0.0,-100000.0,95763.2,95752.9,95728.1,95783.4
251.0,0.0,-17003.5,0.0,-100000.0,95998.3,95988.0,95963.0,96017.9
252.0,0.0,-16988.2,0.0,-100000.0,96153.9,96143.5,96118.8,96174.3
253.0,0.0,-16797.6,0.0,-100000.0,95984.2,95973.9,95949.6,96005.7
254.0,0.0,-16719.2,0.0,-100000.0,95747.0,95736.7,95712.0,95767.6
255.0,0.0,-16936.9,0.0,-100000.0,95934.8,95924.5,95899.4,95954.3
0.0,0.0,-16986.3,0.0,-100000.0,96135.0,96124.7,96099.9,96155.3
1.0,0.0,-16825.9,0.0,-100000.0,96023.2,96012.9,95988.5,96044.5
2.0,0.0,-16718.7,0.0,-100000.0,95747.8,95737.5,95712.8,95768.6
3.0,0.0,-16909.9,0.0,-100000.0,95870.1,95859.8,95834.7,95889.6
4.0,0.0,-17001.7,0.0,-100000.0,96108.4,96098.0,96073.2,96128.4
5.0,0.0,-16856.0,0.0,-100000.0,96058.8,96048.4,96024.0,96080.0
6.0,0.0,-16716.1,0.0,-100000.0,95766.4,95756.1,95731.6,95787.6
7.0,0.0,-16869.8,0.0,-100000.0,95808.6,95798.3,95773.2,95828.3
8.0,0.0,-17002.5,0.0,-100000.0,96071.9,96061.5,96036.6,96091.9
9.0,0.0,-16903.3,0.0,-100000.0,96082.6,96072.2,96047.7,96103.6
10.0,0.0,-16748.2,0.0,-100000.0,95797.6,95787.4,95762.9,95819.0
11.0,0.0,-16845.7,0.0,-100000.0,95750.7,95740.4,95715.4,95770.4
12.0,0.0,-17003.3,0.0,-100000.0,96022.4,96012.0,95987.1,96042.2
13.0,0.0,-16926.3,0.0,-100000.0,96091.2,96080.9,96056.3,96112.0
14.0,0.0,-16773.1,0.0,-100000.0,95834.9,95824.6,95800.3,95856.4
15.0,0.0,-16837.2,0.0,-100000.0,95703.0,95692.7,95667.8,95723.0
16.0,0.0,-17020.9,0.0,-100000.0,95962.7,95952.4,95927.4,95982.4
17.0,0.0,-16970.7,0.0,-100000.0,96087.8,96077.5,96052.9,96108.5
18.0,0.0,-16814.3,0.0,-100000.0,95877.2,95866.8,95842.5,95898.7
19.0,0.0,-16831.8,0.0,-100000.0,95671.0,95660.7,95635.9,95691.3
20.0,0.0,-17029.0,0.0,-100000.0,95899.0,95888.6,95863.5,95918.5
21.0,0.0,-17009.1,0.0,-100000.0,96075.6,96065.2,96040.6,96096.0
22.0,0.0,-16866.9,0.0,-100000.0,95919.9,95909.6,95885.3,95941.3
23.0,0.0,-16823.7,0.0,-100000.0,95657.6,95647.2,95622.5,95678.1
24.0,0.0,-17004.5,0.0,-100000.0,95829.4,95819.1,95793.9,95848.8
25.0,0.0,-17034.8,0.0,-100000.0,96050.7,96040.3,96015.5,96070.9
26.0,0.0,-17131.2,0.0,0.0,95779.5,95769.2,95747.7,95802.7
27.0,0.0,-17164.4,0.0,0.0,96015.6,96005.3,95984.2,96039.6
28.0,0.0,-17044.2,0.0,0.0,95944.7,95934.3,95913.6,95969.7
29.0,0.0,-16981.0,0.0,0.0,95640.7,95630.4,95609.5,95665.5
30.0,0.0,-17162.6,0.0,0.0,95702.8,95692.5,95671.1,95726.1
31.0,0.0,-17241.5,0.0,0.0,95967.8,95957.5,95936.2,95991.5
32.0,0.0,-17131.2,0.0,0.0,95962.6,95952.3,95931.5,95987.4
33.0,0.0,-17046.3,0.0,0.0,95662.5,95652.2,95631.3,95687.5
34.0,0.0,-17193.0,0.0,0.0,95635.6,95625.3,95603.9,95659.0
35.0,0.0,-17314.0,0.0,0.0,95911.9,95901.5,95880.2,95935.5
36.0,0.0,-17228.1,0.0,0.0,95966.8,95956.4,95935.6,95991.5
37.0,0.0,-17126.3,0.0,0.0,95692.7,95682.4,95661.7,95718.0
38.0,0.0,-17235.2,0.0,0.0,95576.5,95566.2,95544.9,95600.2
39.0,0.0,-17387.2,0.0,0.0,95847.9,95837.5,95816.2,95871.3
40.0,0.0,-17316.6,0.0,0.0,95961.3,95950.9,95930.0,95985.7
41.0,0.0,-17204.7,0.0,0.0,95728.6,95718.3,95697.6,95753.8
42.0,0.0,-17279.9,0.0,0.0,95529.6,95519.3,95498.0,95553.5
43.0,0.0,-17451.6,0.0,0.0,95771.1,95760.8,95739.3,95794.4
44.0,0.0,-17399.3,0.0,0.0,95940.5,95930.2,95909.1,95964.7
45.0,0.0,-17270.4,0.0,0.0,95765.7,95755.4,95734.7,95790.9
46.0,0.0,-17305.3,0.0,0.0,95504.7,95494.4,95473.3,95529.0
47.0,0.0,-17490.3,0.0,0.0,95695.0,95684.7,95663.2,95718.2
48.0,0.0,-17474.3,0.0,0.0,95911.8,95901.5,95880.4,95935.9
49.0,0.0,-17343.0,0.0,0.0,95799.0,95788.8,95768.1,95824.2
50.0,0.0,-17335.3,0.0,0.0,95498.9,95488.7,95467.7,95523.6
51.0,0.0,-17520.9,0.0,0.0,95617.7,95607.4,95585.9,95640.8
52.0,0.0,-17543.5,0.0,0.0,95870.9,95860.6,95839.4,95894.7
53.0,0.0,-17415.3,0.0,0.0,95822.3,95812.0,95791.2,95847.2
54.0,0.0,-17384.0,0.0,0.0,95510.0,95499.7,95478.9,95534.8
55.0,0.0,-17561.2,0.0,0.0,95541.2,95531.0,95509.5,95564.5
56.0,0.0,-17610.3,0.0,0.0,95818.6,95808.3,95787.0,95842.2
57.0,0.0,-17498.6,0.0,0.0,95833.8,95823.6,95802.6,95858.6
58.0,0.0,-17432.9,0.0,0.0,95532.2,95522.0,95501.1,95557.3
59.0,0.0,-17573.9,0.0,0.0,95470.4,95460.2,95438.7,95493.8
60.0,0.0,-17667.4,0.0,0.0,95754.9,95744.7,95723.3,95778.4
61.0,0.0,-17569.8,0.0,0.0,95833.2,95823.0,95802.1,95857.8
62.0,0.0,-17474.4,0.0,0.0,95568.3,95558.1,95537.5,95593.7
63.0,0.0,-17584.6,0.0,0.0,95418.3,95408.0,95386.7,95442.0
64.0,0.0,-17721.6,0.0,0.0,95685.9,95675.6,95654.1,95709.1
65.0,0.0,-17632.1,0.0,0.0,95821.5,95811.3,95790.2,95845.9
66.0,0.0,-17535.6,0.0,0.0,95606.4,95596.2,95575.5,95631.7
67.0,0.0,-17599.7,0.0,0.0,95381.9,95371.7,95350.5,95406.0
68.0,0.0,-17744.9,0.0,0.0,95612.8,95602.5,95580.9,95636.0
69.0,0.0,-17682.1,0.0,0.0,95802.1,95791.8,95770.7,95826.2
70.0,0.0,-17555.7,0.0,0.0,95646.7,95636.4,95615.7,95671.8
71.0,0.0,-17589.9,0.0,0.0,95365.6,95355.4,95334.3,95389.9
